   2.7094981e-05  -1.4728012e-05  -2.5280328e-05  -5.8064133e-05  -9.1580096e-06  -9.8829023e-06   6.4211957e-06  -1.9984625e-05  -3.3325408e-05  -3.7364084e-05  -4.3953323e-05  -3.9519330e-05  -1.5584567e-05   2.7683376e-05  -4.8406865e-07  -4.5921296e-05  -5.3713828e-05  -1.3982711e-05  -1.5859889e-05  -1.7371889e-05  -1.2794323e-05  -2.8147249e-05  -1.0615581e-05  -3.1943192e-05  -2.5496105e-05  -2.7449722e-05  -2.9594003e-05  -4.7943271e-05  -3.1270096e-05  -2.7513935e-05   1.4696687e-05  -3.2522502e-06  -4.4403348e-06  -3.8738304e-05  -4.6932806e-05  -2.2917675e-05  -1.0126531e-05  -1.4761176e-05  -2.7247658e-05  -7.4125207e-05  -7.0120372e-05  -1.4770808e-04  -5.7286093e-05  -1.3906899e-05  -6.0351387e-05  -1.4999583e-05  -4.1153159e-05  -3.6947490e-05  -3.4536299e-05  -1.9136567e-05  -3.8326865e-05  -2.5109990e-05  -4.0147245e-05  -7.5052460e-05  -4.3166015e-05  -6.1867882e-05  -4.1819657e-05  -1.0430118e-05  -7.0350921e-05  -6.7777164e-05  -2.5978949e-05  -7.8852780e-05  -7.7594461e-05  -4.6198403e-05  -6.9205478e-05  -5.5648582e-05  -2.8776403e-05  -3.3147919e-05  -4.8144288e-05  -5.5007697e-05  -6.7115136e-05  -1.6018121e-05  -2.6854239e-05  -1.5643343e-06  -1.9075186e-05  -4.3540365e-05  -2.1519270e-05  -2.8824700e-05  -1.0456357e-04  -1.1455528e-04  -1.1097446e-04  -1.6687306e-04  -2.3196653e-04   1.1720341e-05  -1.5299702e-04  -1.0128643e-04  -1.0204531e-04  -2.9753248e-04  -9.4281711e-05  -1.6997035e-04  -1.3274190e-04  -1.4841659e-04  -1.7093785e-04  -1.5614300e-04  -1.6714678e-04  -2.5631653e-04  -2.0736281e-04  -3.9299444e-05  -1.3734445e-04  -5.8929258e-05   2.3662627e-08  -1.9812337e-04  -1.0737119e-04  -9.0783796e-05  -5.5298445e-05   6.5970926e-07  -1.0844232e-04  -1.3648548e-04  -1.5255518e-04   5.5773285e-05   3.1008116e-05  -1.2252271e-04  -1.2049861e-05   1.9740412e-05   1.7896095e-06  -1.8317995e-05  -3.1575853e-05  -9.1766414e-05  -2.2793972e-05  -8.3115964e-06  -2.0436561e-05  -3.2824443e-05  -3.5501006e-05  -1.9078809e-05  -2.8127315e-05  -1.6379477e-05  -3.7486597e-05  -5.4992674e-05  -2.3221074e-05  -4.9263885e-05  -2.6580634e-05  -3.7543671e-05  -1.2106326e-05  -1.8041764e-05  -2.2968071e-05  -3.4794415e-05  -2.3718395e-05  -7.9101039e-05  -3.5999731e-05  -4.3102238e-05  -4.3683711e-05  -4.9569354e-05  -4.9312091e-05  -3.9798578e-05  -4.8921143e-05  -1.8318656e-06  -1.5949152e-05  -2.8847031e-05  -5.0677674e-05  -4.6525236e-05  -4.3013794e-05  -4.0579788e-05  -6.8653278e-05  -1.5754583e-05  -4.9219923e-05  -1.3060435e-04  -3.5004728e-05  -1.5486291e-05  -2.6080988e-05  -4.0771020e-05  -5.6637985e-05  -4.4483842e-05  -5.8524395e-05  -3.4206443e-05  -2.7918982e-05  -4.9801873e-05  -5.9647846e-06  -3.3202724e-05  -4.5606707e-05  -3.6608841e-05  -3.0881304e-05  -2.7895386e-05  -5.6500280e-05  -3.4888945e-05  -2.5047020e-05  -7.4766334e-05  -3.6359075e-05  -3.8936987e-05  -4.7465925e-05  -5.0572733e-05  -4.0619607e-05  -3.4014977e-05  -2.3202363e-05  -3.3597646e-05   2.6159178e-05  -5.4278572e-05  -5.2364625e-05  -1.3928627e-05   1.6915609e-05  -3.2833106e-05  -1.6555259e-05  -4.4020659e-06  -8.6369873e-06  -3.3746111e-05  -2.8259356e-05  -1.1243870e-05  -3.5205592e-05  -3.5162982e-05  -2.6308054e-05  -1.7465560e-05  -3.1209207e-05  -3.8466583e-05  -1.1736382e-05  -3.9196752e-05  -3.8466881e-05  -2.6046708e-05  -3.5057269e-05  -3.3861431e-05  -3.9594805e-05  -3.3383095e-05  -5.3990087e-05  -3.0339607e-05  -1.6846894e-05  -3.4427240e-05  -2.3949768e-05  -4.5556945e-05  -3.0779260e-05  -4.0452090e-05  -3.4644681e-05  -3.9133019e-05  -5.5276690e-05  -3.9719909e-05  -1.5029406e-05  -3.4063471e-05  -3.3491963e-05  -7.5033956e-05  -4.0404121e-05  -1.0249575e-05  -8.7387289e-05  -3.2888714e-06  -2.4481418e-05  -5.1798846e-05  -4.5803632e-05  -1.0979447e-05   1.0915471e-06  -3.8051710e-05  -2.2954394e-05  -1.8217785e-05  -1.8122359e-05   1.3126720e-07  -1.1932802e-05  -7.7780935e-05  -1.1664461e-05  -3.4180290e-05   2.4573382e-05  -2.2279233e-05  -1.7796989e-05  -3.1502346e-05  -2.9435422e-05  -3.7817329e-06  -2.2405004e-05  -1.2366545e-05  -1.6939873e-05  -3.7719775e-05   1.6430211e-05  -2.3729241e-05  -4.3080088e-05  -6.1166846e-05   5.3183388e-07  -1.2509139e-05   6.6040519e-05  -8.4728379e-06  -2.1169985e-05  -5.5058875e-05   9.8573280e-06   9.9074106e-06  -5.7974429e-06   4.8838695e-05   3.8124851e-05   4.8853584e-05   2.9479777e-05   1.0562253e-05   3.6897223e-05   5.3776803e-06   1.1393247e-05   3.0963655e-05   6.8387372e-07   2.4482869e-05   3.6442440e-05   2.5863892e-05   3.6892478e-05   8.6459385e-05   3.2705761e-05  -3.6335397e-06   4.9942768e-06   1.4236139e-05  -4.3402354e-06   4.9386646e-05  -1.0661520e-06   2.0993005e-05   3.1123626e-05   3.4611807e-06   3.0927214e-05   2.6294606e-05  -1.5051512e-05  -1.2389832e-06   2.4562223e-05  -5.2157366e-05   6.4756959e-05   9.0330585e-06   2.0120357e-07  -3.6154655e-05  -3.6555310e-05   1.1469208e-05  -7.8999547e-05  -2.2807086e-05  -4.2547500e-05  -4.4834122e-05  -7.1670063e-05  -2.6430874e-05  -1.1187664e-04  -7.7389757e-05  -2.1486667e-05  -4.0795298e-05  -1.1815043e-06  -2.8878433e-05  -6.9690060e-05  -2.8443335e-04  -1.9085570e-05  -1.0678328e-04  -1.1129682e-05  -4.9338314e-07  -4.4863118e-05  -5.3301048e-05   3.4796725e-06  -6.1176787e-05  -3.5148479e-05  -5.2409523e-05  -5.7429663e-05  -6.7177202e-05  -1.9805078e-05  -5.8734631e-05  -4.5591022e-05  -4.5250910e-05  -5.4969590e-05  -2.9219174e-05   4.9482245e-06  -4.2941874e-05  -3.5391012e-05  -4.8793827e-05  -1.6139232e-04  -5.2346311e-05   2.3523234e-05  -2.8071784e-05  -3.6983900e-05  -5.7847513e-05  -4.2128611e-06  -1.7803474e-05   2.2075876e-05   9.9364269e-06  -4.1114456e-05  -4.4192030e-05  -7.7884422e-05  -5.2677142e-05   1.5099709e-05   3.7882980e-05   2.0792833e-05  -3.7304692e-05  -5.5765717e-05  -5.9145642e-05  -7.9344746e-05  -7.2885257e-05  -7.2386278e-05  -1.0421690e-05  -3.0817987e-05  -2.8619750e-05  -9.3229768e-06  -6.5032879e-05  -6.9116408e-05  -5.0068922e-05  -3.4644954e-05   1.8507582e-06  -4.8285442e-06  -5.2401685e-05  -1.4927546e-05  -4.6883196e-05  -6.1866195e-05  -5.4753557e-05   1.2025129e-05   2.1857441e-05   8.6965529e-05  -6.2327178e-05  -5.3032625e-07   4.7714278e-05  -8.3151266e-05   3.8462504e-06  -9.4987822e-05   7.3769138e-05   1.8239288e-05   1.2190053e-04   7.4354481e-05   5.0977812e-05   8.0722248e-05  -6.1722795e-05  -9.4948698e-06   9.4344340e-05   9.9946400e-05  -8.8773035e-05   3.8747267e-05   2.9371858e-05   4.5326992e-05   2.9215121e-05   5.9159753e-06   8.5981593e-05  -5.4442793e-06   6.5677251e-05   1.8028418e-05   1.0550450e-04   3.5514971e-05   1.2319978e-05  -8.4502669e-08   1.1716644e-04  -8.0670797e-05   1.3617527e-04   1.1742810e-04   5.8637224e-05  -8.4903801e-05   2.1776788e-05
   2.1350681e-05  -1.9805608e-05  -3.4650220e-05  -7.6781946e-05  -1.6521501e-05  -1.5433823e-05   1.8229688e-06  -2.7469298e-05  -4.2678869e-05  -4.6755904e-05  -5.7192995e-05  -5.0536919e-05  -2.0743670e-05   2.1389679e-05  -4.5488057e-06  -5.7733211e-05  -6.4732430e-05  -2.2433125e-05  -2.3433727e-05  -2.7111082e-05  -2.2995209e-05  -3.7012952e-05  -1.6731259e-05  -4.3972007e-05  -3.3748390e-05  -3.8368943e-05  -3.9927351e-05  -6.0145834e-05  -4.0926933e-05  -3.2761074e-05   1.1854956e-05  -9.9186659e-06  -9.2037420e-06  -4.6862592e-05  -5.8322623e-05  -3.1161063e-05  -1.5650310e-05  -1.8199661e-05  -3.3029895e-05  -8.8864404e-05  -8.9442076e-05  -1.7745412e-04  -8.2695241e-05  -1.9268079e-05  -7.1720389e-05  -1.2676685e-05  -4.6176950e-05  -4.0969614e-05  -4.2669387e-05  -1.9471958e-05  -3.5816386e-05  -2.9243070e-05  -5.1484566e-05  -9.1889176e-05  -4.9365930e-05  -7.5620437e-05  -4.7706565e-05  -1.8042253e-05  -7.6578392e-05  -9.0861308e-05  -3.3709699e-05  -9.7679804e-05  -9.9251554e-05  -5.4347860e-05  -8.1681349e-05  -6.2267427e-05  -3.0306900e-05  -3.5400439e-05  -5.5102948e-05  -6.2916997e-05  -8.8490108e-05  -1.3336783e-05  -2.8378582e-05   1.4616653e-06  -2.1333097e-05  -4.7004985e-05  -9.3741837e-06  -2.3671591e-05  -1.0824259e-04  -1.2125302e-04  -1.1635382e-04  -1.8164434e-04  -2.4535989e-04  -4.8286650e-06  -1.5959413e-04  -1.1214693e-04  -1.1064306e-04  -3.2440514e-04  -1.0358632e-04  -1.7391399e-04  -1.3627327e-04  -1.4886731e-04  -1.8614478e-04  -1.6373551e-04  -1.8662015e-04  -2.7122623e-04  -2.0730360e-04  -3.4757222e-05  -1.4740329e-04  -5.1622217e-05   7.8930928e-06  -2.1383925e-04  -1.0925805e-04  -9.8877040e-05  -4.6797842e-05  -1.0910278e-05  -9.6264103e-05  -1.2866832e-04  -1.5172504e-04   6.3762419e-05   4.6458146e-05  -1.1351717e-04   5.5347967e-07   2.2004402e-05  -4.0281614e-06  -2.1515768e-05  -3.5423172e-05  -1.0181746e-04  -2.6214355e-05  -1.0614584e-05  -2.6203864e-05  -3.9502431e-05  -4.0716978e-05  -2.1018724e-05  -3.1971335e-05  -2.1084055e-05  -4.3592557e-05  -6.6975335e-05  -2.7030494e-05  -5.5283143e-05  -2.9761251e-05  -4.1830287e-05  -1.5304243e-05  -2.1852235e-05  -2.7481349e-05  -3.8892268e-05  -2.6659567e-05  -8.7987280e-05  -3.9196614e-05  -4.8778001e-05  -4.8072851e-05  -5.3236389e-05  -5.5356247e-05  -4.5163254e-05  -5.5932033e-05  -5.5896135e-06  -1.9012144e-05  -3.1177202e-05  -5.4872887e-05  -5.1112784e-05  -4.9488319e-05  -4.6427329e-05  -7.9770076e-05  -1.7545619e-05  -5.3731217e-05  -1.4389357e-04  -3.9109256e-05  -1.5843635e-05  -2.8595983e-05  -4.4130609e-05  -6.1095064e-05  -4.6777529e-05  -6.1938125e-05  -3.4892482e-05  -3.0438096e-05  -5.7253104e-05  -5.9581787e-06  -3.2849403e-05  -4.7050247e-05  -3.8231707e-05  -3.1979341e-05  -2.9092902e-05  -6.1875422e-05  -3.7432158e-05  -2.6263695e-05  -8.3246796e-05  -4.1057561e-05  -4.1716584e-05  -5.0993274e-05  -5.4547498e-05  -4.3235906e-05  -3.9904407e-05  -2.7064713e-05  -4.0053694e-05   2.8778571e-05  -5.8653259e-05  -5.4009029e-05  -1.1307787e-05   1.7496333e-05  -3.6749059e-05  -2.1158905e-05  -4.7719161e-06  -8.2061739e-06  -3.4814838e-05  -3.1378584e-05  -1.3414381e-05  -4.1512098e-05  -3.7718562e-05  -2.7710444e-05  -1.7383745e-05  -3.3880076e-05  -4.3430833e-05  -1.2365579e-05  -4.5189265e-05  -4.2203337e-05  -2.4188067e-05  -3.8017393e-05  -3.8516187e-05  -4.4704477e-05  -3.8070260e-05  -6.1587559e-05  -3.4061165e-05  -1.9307155e-05  -3.7012220e-05  -2.6617233e-05  -5.1406862e-05  -3.4873996e-05  -4.4149485e-05  -3.7034308e-05  -4.1920104e-05  -6.3477071e-05  -4.2155447e-05  -2.0246010e-05  -3.6246319e-05  -3.3780916e-05  -7.7337585e-05  -4.3256224e-05  -1.1518115e-05  -1.0075557e-04  -8.4503925e-06  -2.7423818e-05  -5.8699334e-05  -5.3904228e-05  -1.2896071e-05  -3.7632483e-06  -3.6163762e-05  -2.3718029e-05  -1.9975483e-05  -1.7464611e-05   7.9537607e-07  -1.6820653e-05  -9.0383474e-05  -1.7132812e-05  -4.5330946e-05   2.5081681e-05  -2.3026321e-05  -1.7943572e-05  -3.4422850e-05  -3.1255775e-05  -6.2486307e-06  -2.5012417e-05  -1.3244540e-05  -2.1918303e-05  -3.9923320e-05   1.7868194e-05  -2.7100652e-05  -4.8080868e-05  -6.8637244e-05  -4.3958860e-06  -1.2864060e-05   6.6128054e-05  -9.7765409e-06  -2.4267116e-05  -5.9193961e-05   9.0378330e-06   7.9989467e-06  -4.3520327e-06   5.5965826e-05   4.4727020e-05   6.0454438e-05   3.3186298e-05   1.4723400e-05   4.4462560e-05   1.2503969e-05   1.7928506e-05   3.7202080e-05   5.6546218e-06   3.2347134e-05   4.4056047e-05   3.5318125e-05   4.2465921e-05   9.9854009e-05   4.2050466e-05   1.2861003e-06   7.8611208e-06   2.3851034e-05  -8.5318957e-06   5.6356360e-05   3.3862437e-06   2.8175506e-05   3.6643680e-05   1.1125216e-05   3.8305180e-05   3.5245657e-05  -1.2285804e-05   6.5958937e-07   2.6794356e-05  -5.7114502e-05   6.9615654e-05   1.5679383e-05   4.8721386e-06  -3.5699962e-05  -3.7377287e-05   1.3946457e-05  -8.9265906e-05  -2.7443178e-05  -4.9374074e-05  -5.7838741e-05  -8.1276805e-05  -2.7756155e-05  -1.2460227e-04  -8.9645022e-05  -2.5097817e-05  -4.7346717e-05  -1.6510894e-06  -2.8202167e-05  -7.7540734e-05  -3.0811999e-04  -2.2272341e-05  -1.1823061e-04  -1.2196980e-05  -2.7117030e-06  -4.9865481e-05  -5.5536934e-05   3.7278736e-06  -6.5090923e-05  -3.8106524e-05  -5.5816368e-05  -6.2813853e-05  -7.1317340e-05  -2.4140979e-05  -6.2410943e-05  -4.7666100e-05  -5.1378699e-05  -6.5927604e-05  -2.5981891e-05   6.2319017e-06  -4.5157641e-05  -3.4489418e-05  -5.1585306e-05  -1.8247113e-04  -5.9498983e-05   1.6275684e-05  -3.5061151e-05  -4.6613320e-05  -6.8664039e-05  -8.6030812e-06  -2.4098464e-05   1.6067486e-05   3.8704931e-06  -5.0276748e-05  -5.3989919e-05  -8.9519327e-05  -6.4666527e-05   9.8008045e-06   2.5530336e-05   1.7842986e-05  -4.8910277e-05  -6.2383303e-05  -6.8237062e-05  -9.1213668e-05  -8.5748461e-05  -8.4195326e-05  -1.7288418e-05  -3.7436115e-05  -3.9361777e-05  -1.5010686e-05  -7.7819258e-05  -8.1442842e-05  -5.9589961e-05  -4.4849925e-05  -5.4226296e-06  -1.3274488e-05  -6.1104246e-05  -2.1246368e-05  -5.7572972e-05  -7.4046881e-05  -6.3390969e-05   7.6893352e-06   1.7247428e-05   1.0488926e-04  -6.5388817e-05   6.5298847e-06   5.3962616e-05  -9.0006695e-05   1.2023950e-05  -1.0386290e-04   8.8802348e-05   2.8067568e-05   1.4305984e-04   9.3066789e-05   6.9436145e-05   1.0145497e-04  -5.5384990e-05  -4.7008996e-06   1.0800988e-04   1.1034796e-04  -9.3589610e-05   5.3603850e-05   3.7735990e-05   5.4152115e-05   2.8701852e-05   1.1073134e-05   9.5269810e-05  -9.0240014e-06   7.8313500e-05   2.5972405e-05   1.2423050e-04   4.4598455e-05   1.0605493e-05  -1.2962871e-05   1.4070853e-04  -9.0203586e-05   1.5406216e-04   1.3957313e-04   6.9212969e-05  -8.4516873e-05   2.4393985e-05
   1.3746906e-05  -2.5031310e-05  -4.4557817e-05  -9.6522155e-05  -2.4625818e-05  -2.1443870e-05  -3.6865313e-06  -3.5546591e-05  -5.2404088e-05  -5.6293074e-05  -7.0965521e-05  -6.1844031e-05  -2.6264852e-05   1.2779111e-05  -9.2229192e-06  -7.0061966e-05  -7.5547823e-05  -3.1787624e-05  -3.1481207e-05  -3.7747187e-05  -3.4301849e-05  -4.6152159e-05  -2.3452047e-05  -5.6738791e-05  -4.2332361e-05  -5.0058557e-05  -5.0701831e-05  -7.2591430e-05  -5.1028966e-05  -3.7993794e-05   8.2870175e-06  -1.7650578e-05  -1.4178881e-05  -5.4987288e-05  -6.9884870e-05  -3.9672216e-05  -2.1340293e-05  -2.1619100e-05  -3.8634244e-05  -1.0383140e-04  -1.0820795e-04  -2.0621830e-04  -1.1060535e-04  -2.4695427e-05  -8.0905004e-05  -8.1960018e-06  -4.9320895e-05  -4.3587347e-05  -5.0401524e-05  -1.8359830e-05  -3.0341527e-05  -3.1426078e-05  -6.2711297e-05  -1.0850656e-04  -5.4820195e-05  -8.8635980e-05  -5.2405453e-05  -2.6197317e-05  -8.1446724e-05  -1.1607780e-04  -4.1429726e-05  -1.1761761e-04  -1.2211239e-04  -6.1339844e-05  -9.3423732e-05  -6.7527344e-05  -2.9523904e-05  -3.5322688e-05  -6.0575842e-05  -7.0717024e-05  -1.1111473e-04  -8.5695365e-06  -2.8317972e-05   6.4623503e-06  -2.2427142e-05  -4.8496721e-05   2.5995396e-06  -1.6502750e-05  -1.0939151e-04  -1.2530915e-04  -1.1839602e-04  -1.9257790e-04  -2.5266003e-04  -3.0339162e-05  -1.6177233e-04  -1.2151714e-04  -1.1869916e-04  -3.4599289e-04  -1.1017307e-04  -1.7278771e-04  -1.3595342e-04  -1.4187561e-04  -1.9826409e-04  -1.6750078e-04  -2.0408043e-04  -2.8026885e-04  -2.0219929e-04  -2.8863577e-05  -1.5342652e-04  -4.0161609e-05   1.7762904e-05  -2.2504154e-04  -1.0793732e-04  -1.0522057e-04  -3.4319044e-05  -2.5292060e-05  -7.6633697e-05  -1.1794656e-04  -1.4389377e-04   6.9060138e-05   6.1961347e-05  -9.6278095e-05   1.9664612e-05   2.4399134e-05  -1.0945438e-05  -2.4421570e-05  -3.8704562e-05  -1.0978172e-04  -2.9265763e-05  -1.2891428e-05  -3.2264218e-05  -4.6057042e-05  -4.5352571e-05  -2.2409237e-05  -3.5253078e-05  -2.5779625e-05  -4.9448956e-05  -7.9162217e-05  -3.0756054e-05  -6.0320531e-05  -3.2241488e-05  -4.5253404e-05  -1.8461501e-05  -2.5445448e-05  -3.1487570e-05  -4.2281032e-05  -2.9157554e-05  -9.5339360e-05  -4.1656895e-05  -5.3594845e-05  -5.1569375e-05  -5.5579432e-05  -6.0575038e-05  -5.0129598e-05  -6.2338413e-05  -9.6125586e-06  -2.1972504e-05  -3.2600220e-05  -5.7694898e-05  -5.4767789e-05  -5.5785043e-05  -5.1851899e-05  -9.0815786e-05  -1.9304921e-05  -5.7678038e-05  -1.5499890e-04  -4.3036317e-05  -1.5862731e-05  -3.0752942e-05  -4.6555789e-05  -6.4412595e-05  -4.8029116e-05  -6.4037440e-05  -3.4632177e-05  -3.2546118e-05  -6.4104006e-05  -5.7038835e-06  -3.1320632e-05  -4.6869414e-05  -3.9106982e-05  -3.2339886e-05  -2.9864620e-05  -6.6101420e-05  -3.9119065e-05  -2.6859274e-05  -9.0496384e-05  -4.5074510e-05  -4.3688616e-05  -5.3620349e-05  -5.7307509e-05  -4.4989756e-05  -4.5192503e-05  -3.1038247e-05  -4.6509078e-05   3.0597567e-05  -6.1604006e-05  -5.4106620e-05  -8.7919030e-06   1.6753009e-05  -4.0269020e-05  -2.5394227e-05  -4.6184830e-06  -7.0859717e-06  -3.3901055e-05  -3.3555123e-05  -1.5155449e-05  -4.6929539e-05  -3.8926363e-05  -2.7886177e-05  -1.6107233e-05  -3.5223883e-05  -4.7016533e-05  -1.2016306e-05  -5.0009562e-05  -4.5019597e-05  -2.0253818e-05  -3.9561991e-05  -4.2372958e-05  -4.8935502e-05  -4.1857873e-05  -6.8034217e-05  -3.6994811e-05  -2.1233228e-05  -3.8306789e-05  -2.8682089e-05  -5.6082207e-05  -3.7983581e-05  -4.6562816e-05  -3.8247608e-05  -4.3503525e-05  -7.0806661e-05  -4.3051622e-05  -2.5757454e-05  -3.7185582e-05  -3.2466872e-05  -7.6910865e-05  -4.4978177e-05  -1.2382420e-05  -1.1387649e-04  -1.4571053e-05  -3.0399450e-05  -6.5245313e-05  -6.2018972e-05  -1.5082302e-05  -9.7359748e-06  -3.3192763e-05  -2.4284761e-05  -2.2025527e-05  -1.6542135e-05   9.6690885e-07  -2.2147997e-05  -1.0177581e-04  -2.2893058e-05  -5.6768178e-05   2.4391642e-05  -2.3285533e-05  -1.8349840e-05  -3.7348522e-05  -3.3234326e-05  -9.2271406e-06  -2.7365835e-05  -1.3889736e-05  -2.7289400e-05  -4.1239823e-05   1.8884921e-05  -3.0324650e-05  -5.2614133e-05  -7.5121730e-05  -1.0136832e-05  -1.3490852e-05   6.4180434e-05  -1.1135583e-05  -2.7263139e-05  -6.2163841e-05   8.3304015e-06   5.2642593e-06  -2.1730402e-06   6.2483725e-05   5.1204229e-05   7.2291921e-05   3.6727001e-05   1.9153973e-05   5.1981500e-05   2.0797816e-05   2.5433608e-05   4.3604031e-05   1.1828219e-05   4.1002090e-05   5.1513197e-05   4.4619556e-05   4.7108327e-05   1.1150588e-04   5.2098135e-05   7.6100372e-06   1.1221297e-05   3.4503250e-05  -1.2367369e-05   6.2857488e-05   8.4707382e-06   3.5659644e-05   4.1922616e-05   1.9816670e-05   4.5437346e-05   4.4776637e-05  -8.3759076e-06   3.3163550e-06   2.8808058e-05  -5.9833955e-05   7.3156330e-05   2.2935072e-05   1.0349023e-05  -3.3785868e-05  -3.7461036e-05   1.6489728e-05  -9.8622051e-05  -3.2586766e-05  -5.6115634e-05  -7.1320571e-05  -8.9966410e-05  -2.8352142e-05  -1.3666953e-04  -1.0013896e-04  -2.8409200e-05  -5.3349565e-05  -1.3063315e-06  -2.5743035e-05  -8.4874110e-05  -3.2757662e-04  -2.5020160e-05  -1.2939445e-04  -1.2636537e-05  -4.6177684e-06  -5.3245022e-05  -5.5652089e-05   4.4180564e-06  -6.7551043e-05  -4.0268038e-05  -5.8012512e-05  -6.7434914e-05  -7.3682677e-05  -2.8370327e-05  -6.4834991e-05  -4.8834106e-05  -5.7707931e-05  -7.7570813e-05  -2.1340029e-05   7.9833538e-06  -4.6177090e-05  -3.2269973e-05  -5.3446656e-05  -2.0199918e-04  -6.6595079e-05   6.4445864e-06  -4.2221201e-05  -5.6698615e-05  -7.8597148e-05  -1.3721016e-05  -3.0720788e-05   8.7870687e-06  -3.5549411e-06  -5.9309093e-05  -6.3722783e-05  -1.0027465e-04  -7.6503741e-05   3.9103268e-06   1.0331237e-05   1.3768549e-05  -6.0753573e-05  -6.7628859e-05  -7.6389398e-05  -1.0186839e-04  -9.7957970e-05  -9.5337985e-05  -2.4827449e-05  -4.3910508e-05  -5.0506682e-05  -2.1201750e-05  -9.0349438e-05  -9.3184376e-05  -6.8639283e-05  -5.4799961e-05  -1.3557833e-05  -2.1913469e-05  -7.0595885e-05  -2.8102697e-05  -6.8151483e-05  -8.5681646e-05  -7.0500239e-05   3.6440558e-06   1.2003201e-05   1.2160730e-04  -6.7280569e-05   1.5258560e-05   5.8379894e-05  -9.5007373e-05   2.1642057e-05  -1.1002913e-04   1.0339440e-04   3.8738783e-05   1.6292504e-04   1.1207273e-04   8.9614908e-05   1.2277428e-04  -4.5118748e-05   1.2157636e-06   1.2001571e-04   1.1872074e-04  -9.6000724e-05   6.9260671e-05   4.7586508e-05   6.3570114e-05   2.7024152e-05   1.7132322e-05   1.0234792e-04  -1.2343144e-05   9.0945571e-05   3.3871044e-05   1.4207987e-04   5.4040286e-05   8.8093505e-06  -2.7450554e-05   1.6347254e-04  -9.8435313e-05   1.7026967e-04   1.6105403e-04   7.9268078e-05  -8.0588802e-05   2.7065500e-05
   4.4773265e-06  -3.0249070e-05  -5.4706573e-05  -1.1678337e-04  -3.3239981e-05  -2.7719858e-05  -9.9492144e-06  -4.3995096e-05  -6.2260274e-05  -6.5716797e-05  -8.4900795e-05  -7.3146065e-05  -3.2032836e-05   2.0897768e-06  -1.4363288e-05  -8.2597390e-05  -8.5864017e-05  -4.1818047e-05  -3.9751154e-05  -4.8961255e-05  -4.6370145e-05  -5.5308050e-05  -3.0602328e-05  -6.9920435e-05  -5.1025602e-05  -6.2208851e-05  -6.1600542e-05  -8.4947182e-05  -6.1313737e-05  -4.3150572e-05   4.1524100e-06  -2.6273232e-05  -1.9159219e-05  -6.2927812e-05  -8.1304399e-05  -4.8152441e-05  -2.6968001e-05  -2.4938159e-05  -4.3945849e-05  -1.1870931e-04  -1.2547271e-04  -2.3298758e-04  -1.4008582e-04  -2.9971303e-05  -8.7156792e-05  -1.5192581e-06  -5.0239837e-05  -4.4620282e-05  -5.7441133e-05  -1.5808568e-05  -2.1895705e-05  -3.1150426e-05  -7.3345316e-05  -1.2436356e-04  -5.9449601e-05  -1.0033516e-04  -5.5650534e-05  -3.4581150e-05  -8.5049124e-05  -1.4267718e-04  -4.8810935e-05  -1.3816214e-04  -1.4541736e-04  -6.6832240e-05  -1.0409907e-04  -7.1280706e-05  -2.6145233e-05  -3.2542470e-05  -6.4200919e-05  -7.8406379e-05  -1.3418825e-04  -1.7155208e-06  -2.6574889e-05   1.3473356e-05  -2.2142150e-05  -4.7785907e-05   1.3158555e-05  -7.6477785e-06  -1.0828182e-04  -1.2648898e-04  -1.1700841e-04  -1.9928303e-04  -2.5440433e-04  -6.4286859e-05  -1.5966657e-04  -1.2899077e-04  -1.2622046e-04  -3.6190811e-04  -1.1352001e-04  -1.6736638e-04  -1.3241241e-04  -1.2754832e-04  -2.0710971e-04  -1.6758973e-04  -2.1910742e-04  -2.8375638e-04  -1.9304938e-04  -2.2174652e-05  -1.5507675e-04  -2.4628174e-05   2.9329206e-05  -2.3125686e-04  -1.0350430e-04  -1.0927915e-04  -1.8425770e-05  -4.1483343e-05  -5.0744619e-05  -1.0617566e-04  -1.2967665e-04   7.1285725e-05   7.6690455e-05  -7.1533553e-05   4.5719845e-05   2.7329497e-05  -1.8614515e-05  -2.6869960e-05  -4.1258598e-05  -1.1524983e-04  -3.1774686e-05  -1.4990523e-05  -3.8367284e-05  -5.2208701e-05  -4.9158894e-05  -2.3102270e-05  -3.7733108e-05  -3.0149224e-05  -5.4874099e-05  -9.1192755e-05  -3.4280010e-05  -6.4133669e-05  -3.3817262e-05  -4.7624783e-05  -2.1382735e-05  -2.8592265e-05  -3.4720718e-05  -4.4794211e-05  -3.1098757e-05  -1.0088634e-04  -4.3298144e-05  -5.7318408e-05  -5.4029924e-05  -5.6486848e-05  -6.4764835e-05  -5.4559920e-05  -6.7957943e-05  -1.3595011e-05  -2.4664417e-05  -3.3001432e-05  -5.8986301e-05  -5.7363830e-05  -6.1772900e-05  -5.6692538e-05  -1.0155377e-04  -2.1004538e-05  -6.1026336e-05  -1.6366776e-04  -4.6745028e-05  -1.5568675e-05  -3.2493780e-05  -4.8012353e-05  -6.6536989e-05  -4.8256562e-05  -6.4815949e-05  -3.3459116e-05  -3.4262744e-05  -7.0141785e-05  -5.1706299e-06  -2.8628315e-05  -4.5026575e-05  -3.9252145e-05  -3.2017342e-05  -3.0246185e-05  -6.9008821e-05  -3.9858254e-05  -2.6825169e-05  -9.6271331e-05  -4.8179683e-05  -4.4777081e-05  -5.5272381e-05  -5.8724957e-05  -4.5893524e-05  -4.9616156e-05  -3.5102779e-05  -5.2669624e-05   3.1665588e-05  -6.3008168e-05  -5.2738050e-05  -6.9088514e-06   1.4501979e-05  -4.3355280e-05  -2.8958484e-05  -3.8596609e-06  -5.2722565e-06  -3.0916772e-05  -3.4646758e-05  -1.6321815e-05  -5.1144398e-05  -3.8665656e-05  -2.6751182e-05  -1.3593302e-05  -3.5076034e-05  -4.8942157e-05  -1.0570915e-05  -5.3356123e-05  -4.6848457e-05  -1.4310057e-05  -3.9557261e-05  -4.5233261e-05  -5.2113620e-05  -4.4531724e-05  -7.3040129e-05  -3.8979664e-05  -2.2475427e-05  -3.8199844e-05  -3.0033040e-05  -5.9324333e-05  -3.9911633e-05  -4.7546748e-05  -3.8220634e-05  -4.3775746e-05  -7.7013679e-05  -4.2361298e-05  -3.1355231e-05  -3.6823910e-05  -2.9587865e-05  -7.3825977e-05  -4.5521159e-05  -1.2777839e-05  -1.2653155e-04  -2.1453165e-05  -3.3383675e-05  -7.1136411e-05  -6.9933475e-05  -1.7516124e-05  -1.6584777e-05  -2.9444043e-05  -2.4708250e-05  -2.4397173e-05  -1.5472396e-05   5.8037575e-07  -2.7679049e-05  -1.1148175e-04  -2.8589123e-05  -6.7863481e-05   2.2568868e-05  -2.3095198e-05  -1.9154251e-05  -4.0316637e-05  -3.5435742e-05  -1.2569847e-05  -2.9391087e-05  -1.4142955e-05  -3.2840016e-05  -4.1619776e-05   1.9529953e-05  -3.3256780e-05  -5.6521318e-05  -8.0382732e-05  -1.6373471e-05  -1.4473739e-05   6.0548577e-05  -1.2411944e-05  -2.9967719e-05  -6.3891208e-05   7.9671078e-06   1.8692211e-06   8.7103073e-07   6.8392458e-05   5.7592766e-05   8.4343274e-05   4.0217006e-05   2.3800587e-05   5.9235027e-05   3.0018715e-05   3.3852073e-05   5.0204519e-05   1.9330191e-05   5.0472366e-05   5.8648600e-05   5.3324076e-05   5.0567637e-05   1.2102366e-04   6.2843800e-05   1.5386464e-05   1.5188745e-05   4.5946055e-05  -1.5247723e-05   6.8899192e-05   1.4056915e-05   4.3300921e-05   4.6951989e-05   2.9351200e-05   5.2209198e-05   5.4755473e-05  -3.3265768e-06   6.7110051e-06   3.0747171e-05  -5.9819740e-05   7.5543168e-05   3.0579093e-05   1.6609879e-05  -3.0483973e-05  -3.6884818e-05   1.9150442e-05  -1.0681524e-04  -3.8151692e-05  -6.2633857e-05  -8.4815049e-05  -9.7485925e-05  -2.8187700e-05  -1.4814052e-04  -1.0843363e-04  -3.1262282e-05  -5.8490591e-05   1.4025257e-07  -2.1413386e-05  -9.1577283e-05  -3.4300604e-04  -2.7189009e-05  -1.4019249e-04  -1.2274634e-05  -5.8823662e-06  -5.4677763e-05  -5.3511321e-05   5.7822038e-06  -6.8427088e-05  -4.1477832e-05  -5.8907744e-05  -7.1144251e-05  -7.4165574e-05  -3.2222978e-05  -6.5958999e-05  -4.9137531e-05  -6.4282050e-05  -8.9690896e-05  -1.5520729e-05   1.0245827e-05  -4.6006596e-05  -2.8877374e-05  -5.4472188e-05  -2.1968475e-04  -7.3622959e-05  -5.5562571e-06  -4.9253347e-05  -6.6872734e-05  -8.6962343e-05  -1.9308644e-05  -3.7372294e-05   7.1591528e-07  -1.1961593e-05  -6.7806247e-05  -7.3020781e-05  -1.0980591e-04  -8.7695276e-05  -2.0762848e-06  -6.7863070e-06   8.8107181e-06  -7.2290247e-05  -7.1258385e-05  -8.3234688e-05  -1.1091811e-04  -1.0906155e-04  -1.0543026e-04  -3.2702181e-05  -4.9971579e-05  -6.1547136e-05  -2.7629383e-05  -1.0213740e-04  -1.0387283e-04  -7.6781737e-05  -6.3985546e-05  -2.2069089e-05  -3.0187661e-05  -8.0803379e-05  -3.5190392e-05  -7.8161609e-05  -9.6362762e-05  -7.5884900e-05   3.8346040e-07   6.6193136e-06   1.3643599e-04  -6.8157208e-05   2.5438458e-05   6.0614064e-05  -9.8129614e-05   3.2329867e-05  -1.1306419e-04   1.1719773e-04   4.9859230e-05   1.8079822e-04   1.3068819e-04   1.1086207e-04   1.4402677e-04  -3.1224892e-05   8.0351076e-06   1.2993414e-04   1.2494627e-04  -9.6128643e-05   8.5121454e-05   5.8793266e-05   7.3566420e-05   2.4376173e-05   2.3855762e-05   1.0696467e-04  -1.5125503e-05   1.0312734e-04   4.1172588e-05   1.5831299e-04   6.3535802e-05   7.2639153e-06  -4.2713982e-05   1.8451111e-04  -1.0506350e-04   1.8444203e-04   1.8111661e-04   8.8376056e-05  -7.3462940e-05   2.9864794e-05
  -6.2389545e-06  -3.5326967e-05  -6.4811641e-05  -1.3708212e-04  -4.2145082e-05  -3.4072462e-05  -1.6796293e-05  -5.2580149e-05  -7.2018446e-05  -7.4791523e-05  -9.8651266e-05  -8.4177351e-05  -3.7931797e-05  -1.0349726e-05  -1.9815195e-05  -9.5013512e-05  -9.5420909e-05  -5.2292169e-05  -4.8012835e-05  -6.0433862e-05  -5.8854327e-05  -6.4253149e-05  -3.8006105e-05  -8.3216981e-05  -5.9629695e-05  -7.4518775e-05  -7.2335021e-05  -9.6905724e-05  -7.1533148e-05  -4.8182568e-05  -3.9353696e-07  -3.5589369e-05  -2.3974772e-05  -7.0516980e-05  -9.2289059e-05  -5.6333136e-05  -3.2341293e-05  -2.8091358e-05  -4.8913485e-05  -1.3319629e-04  -1.4040269e-04  -2.5687615e-04  -1.7014032e-04  -3.4917971e-05  -8.9914504e-05   7.2430081e-06  -4.8730242e-05  -4.3991166e-05  -6.3569960e-05  -1.1953176e-05  -1.0633289e-05  -2.8048293e-05  -8.2950119e-05  -1.3897937e-04  -6.3246503e-05  -1.1023290e-04  -5.7270276e-05  -4.2911447e-05  -8.7549745e-05  -1.6981731e-04  -5.5561662e-05  -1.5875037e-04  -1.6836191e-04  -7.0598228e-05  -1.1347396e-04  -7.3485399e-05  -2.0055210e-05  -2.6814595e-05  -6.5717753e-05  -8.5996974e-05  -1.5688698e-04   7.0952692e-06  -2.3167147e-05   2.2384400e-05  -2.0331823e-05  -4.4757782e-05   2.1233034e-05   2.4895368e-06  -1.0525308e-04  -1.2454615e-04  -1.1224486e-04  -2.0152420e-04  -2.5157308e-04  -1.0516737e-04  -1.5361096e-04  -1.3410764e-04  -1.3304289e-04  -3.7190133e-04  -1.1322766e-04  -1.5874694e-04  -1.2659226e-04  -1.0651820e-04  -2.1262660e-04  -1.6426092e-04  -2.3129415e-04  -2.8221683e-04  -1.8091801e-04  -1.5283873e-05  -1.5218530e-04  -5.1450442e-06   4.2191175e-05  -2.3208271e-04  -9.6071826e-05  -1.1041970e-04   1.1073644e-07  -5.8147090e-05  -2.0404657e-05  -9.5203087e-05  -1.1018999e-04   7.0407821e-05   8.9972642e-05  -4.0618795e-05   7.8747614e-05   3.1275878e-05  -2.6609625e-05  -2.8704674e-05  -4.2932320e-05  -1.1788675e-04  -3.3570262e-05  -1.6750771e-05  -4.4238635e-05  -5.7684318e-05  -5.1901226e-05  -2.2958837e-05  -3.9173896e-05  -3.3857804e-05  -5.9694314e-05  -1.0269916e-04  -3.7483435e-05  -6.6523151e-05  -3.4307533e-05  -4.8783273e-05  -2.3863173e-05  -3.1060741e-05  -3.6939311e-05  -4.6286416e-05  -3.2382713e-05  -1.0441551e-04  -4.4057729e-05  -5.9748009e-05  -5.5331902e-05  -5.5892375e-05  -6.7749530e-05  -5.8327797e-05  -7.2637697e-05  -1.7224708e-05  -2.6910834e-05  -3.2306888e-05  -5.8644955e-05  -5.8819668e-05  -6.7322888e-05  -6.0805401e-05  -1.1173388e-04  -2.2601943e-05  -6.3741222e-05  -1.6973080e-04  -5.0182141e-05  -1.4986943e-05  -3.3757834e-05  -4.8514606e-05  -6.7458892e-05  -4.7506586e-05  -6.4304937e-05  -3.1425453e-05  -3.5620961e-05  -7.5189472e-05  -4.3286479e-06  -2.4807991e-05  -4.1554560e-05  -3.8688162e-05  -3.1088493e-05  -3.0259574e-05  -7.0460312e-05  -3.9579762e-05  -2.6169118e-05  -1.0037388e-04  -5.0163980e-05  -4.4922108e-05  -5.5887227e-05  -5.8713913e-05  -4.5990123e-05  -5.2969468e-05  -3.9233699e-05  -5.8220139e-05   3.2119881e-05  -6.2813935e-05  -5.0048150e-05  -6.1693010e-06   1.0638248e-05  -4.5994867e-05  -3.1578158e-05  -2.4469661e-06  -2.7924288e-06  -2.5901262e-05  -3.4561514e-05  -1.6800146e-05  -5.3911580e-05  -3.6893849e-05  -2.4293071e-05  -9.8680440e-06  -3.3350890e-05  -4.9023217e-05  -7.9800603e-06  -5.5011426e-05  -4.7676135e-05  -6.5482498e-06  -3.7964996e-05  -4.6947304e-05  -5.4117908e-05  -4.5933004e-05  -7.6378668e-05  -3.9892679e-05  -2.2914406e-05  -3.6644355e-05  -3.0580482e-05  -6.0940752e-05  -4.0530338e-05  -4.7028622e-05  -3.6949933e-05  -4.2682226e-05  -8.1897581e-05  -4.0130699e-05  -3.6828336e-05  -3.5178311e-05  -2.5268612e-05  -6.8283945e-05  -4.4881800e-05  -1.2665935e-05  -1.3848061e-04  -2.8843017e-05  -3.6308043e-05  -7.6023268e-05  -7.7409075e-05  -2.0135352e-05  -2.3988042e-05  -2.5217893e-05  -2.4997261e-05  -2.7054889e-05  -1.4325916e-05  -3.5542057e-07  -3.3148528e-05  -1.1908714e-04  -3.3843448e-05  -7.7971759e-05   1.9777980e-05  -2.2487773e-05  -2.0414437e-05  -4.3313245e-05  -3.7834677e-05  -1.6069697e-05  -3.1003280e-05  -1.3799587e-05  -3.8313641e-05  -4.1011106e-05   1.9908219e-05  -3.5724102e-05  -5.9625340e-05  -8.4225719e-05  -2.2729395e-05  -1.5827924e-05   5.5671530e-05  -1.3422936e-05  -3.2151345e-05  -6.4320691e-05   8.1582773e-06  -1.9556693e-06   4.9164691e-06   7.3760460e-05   6.3972822e-05   9.6662759e-05   4.3791194e-05   2.8627127e-05   6.5993283e-05   3.9881981e-05   4.3105921e-05   5.7060990e-05   2.8277945e-05   6.0787434e-05   6.5330165e-05   6.1053736e-05   5.2655064e-05   1.2818134e-04   7.4304121e-05   2.4628625e-05   1.9889277e-05   5.7940521e-05  -1.6619206e-05   7.4533482e-05   2.0018691e-05   5.0982102e-05   5.1768145e-05   3.9545994e-05   5.8584800e-05   6.5071555e-05   2.8228704e-06   1.0767130e-05   3.2769126e-05  -5.6707888e-05   7.7014038e-05   3.8397343e-05   2.3633558e-05  -2.5938728e-05  -3.5736186e-05   2.1989660e-05  -1.1359290e-04  -4.3998681e-05  -6.8765678e-05  -9.7851000e-05  -1.0359628e-04  -2.7248693e-05  -1.5906612e-04  -1.1422210e-04  -3.3500115e-05  -6.2457628e-05   2.9361666e-06  -1.5196487e-05  -9.7537391e-05  -3.5475764e-04  -2.8656329e-05  -1.5047137e-04  -1.0977371e-05  -6.1958508e-06  -5.3927962e-05  -4.9065981e-05   8.0226021e-06  -6.7606492e-05  -4.1586834e-05  -5.8422716e-05  -7.3766289e-05  -7.2703806e-05  -3.5436325e-05  -6.5750170e-05  -4.8620314e-05  -7.1126922e-05  -1.0200995e-04  -8.7795540e-06   1.3026361e-05  -4.4694277e-05  -2.4497207e-05  -5.4791755e-05  -2.3531962e-04  -8.0567327e-05  -1.9153540e-05  -5.5845741e-05  -7.6734270e-05  -9.3086688e-05  -2.5047683e-05  -4.3737537e-05  -7.6359731e-06  -2.0906565e-05  -7.5369277e-05  -8.1531543e-05  -1.1780528e-04  -9.7763597e-05  -7.6714046e-06  -2.4792780e-05   3.2545883e-06  -8.2973519e-05  -7.3096944e-05  -8.8452950e-05  -1.1805060e-04  -1.1864534e-04  -1.1411801e-04  -4.0547062e-05  -5.5363929e-05  -7.1982737e-05  -3.4013763e-05  -1.1270759e-04  -1.1307300e-04  -8.3604324e-05  -7.1944797e-05  -3.0452243e-05  -3.7593738e-05  -9.1527513e-05  -4.2186483e-05  -8.7157408e-05  -1.0572847e-04  -7.9507686e-05  -1.6820398e-06   1.5814794e-06   1.4879485e-04  -6.8216499e-05   3.6768302e-05   6.0416769e-05  -9.9465742e-05   4.3634519e-05  -1.1267015e-04   1.2996729e-04   6.1017853e-05   1.9607419e-04   1.4823054e-04   1.3243114e-04   1.6456583e-04  -1.4167097e-05   1.5500826e-05   1.3743225e-04   1.2901749e-04  -9.4237934e-05   1.0058635e-04   7.1077787e-05   8.4090252e-05   2.1018970e-05   3.0931405e-05   1.0898493e-04  -1.7157300e-05   1.1437102e-04   4.7319219e-05   1.7221716e-04   7.2755610e-05   6.2916145e-06  -5.7889492e-05   2.0296004e-04  -1.0985431e-04   1.9629614e-04   1.9903303e-04   9.6151003e-05  -6.3685166e-05   3.2850887e-05
  -1.8163796e-05  -4.0157333e-05  -7.4609594e-05  -1.5696662e-04  -5.1138759e-05  -4.0324497e-05  -2.4054395e-05  -6.1062578e-05  -8.1463251e-05  -8.3311435e-05  -1.1189846e-04  -9.4703760e-05  -4.3843690e-05  -2.4133341e-05  -2.5415867e-05  -1.0697917e-04  -1.0399822e-04  -6.2980842e-05  -5.6062409e-05  -7.1856740e-05  -7.1420124e-05  -7.2793894e-05  -4.5492013e-05  -9.6357253e-05  -6.7973168e-05  -8.6703145e-05  -8.2654318e-05  -1.0819493e-04  -8.1459635e-05  -5.3050426e-05  -5.2093595e-06  -4.5382576e-05  -2.8496511e-05  -7.7607397e-05  -1.0257802e-04  -6.3987700e-05  -3.7313903e-05  -3.1031780e-05  -5.3561342e-05  -1.4701581e-04  -1.5232941e-04  -2.7716634e-04  -1.9976211e-04  -3.9403639e-05  -8.8843174e-05   1.7846788e-05  -4.4740117e-05  -4.1727241e-05  -6.8647726e-05  -7.0452507e-06   3.1452263e-06  -2.1915305e-05  -9.1153442e-05  -1.5195902e-04  -6.6263457e-05  -1.1797289e-04  -5.7195778e-05  -5.0954236e-05  -8.9170332e-05  -1.9660905e-04  -6.1443721e-05  -1.7879020e-04  -1.9014474e-04  -7.2536221e-05  -1.2142106e-04  -7.4202283e-05  -1.1312548e-05  -1.8038484e-05  -6.4976046e-05  -9.3507920e-05  -1.7841167e-04   1.7616256e-05  -1.8229495e-05   3.2952150e-05  -1.6924263e-05  -3.9424425e-05   2.6030393e-05   1.3442079e-05  -1.0067904e-04  -1.1922254e-04  -1.0430747e-04  -1.9923671e-04  -2.4556315e-04  -1.5053640e-04  -1.4414498e-04  -1.3638609e-04  -1.3882582e-04  -3.7585123e-04  -1.0904631e-04  -1.4826098e-04  -1.1969567e-04  -7.9914554e-05  -2.1487033e-04  -1.5782925e-04  -2.4027434e-04  -2.7633032e-04  -1.6688295e-04  -8.7613700e-06  -1.4475171e-04   1.8134456e-05   5.5867509e-05  -2.2721372e-04  -8.5745259e-05  -1.0793857e-04   2.0355561e-05  -7.3691381e-05   1.2067932e-05  -8.6707413e-05  -8.6999976e-05   6.6763741e-05   1.0133782e-04  -5.4150490e-06   1.1833752e-04   3.6742764e-05  -3.4450326e-05  -2.9788089e-05  -4.3590549e-05  -1.1745344e-04  -3.4494774e-05  -1.8013870e-05  -4.9598173e-05  -6.2232985e-05  -5.3377188e-05  -2.1859059e-05  -3.9355572e-05  -3.6576687e-05  -6.3750870e-05  -1.1331967e-04  -4.0251312e-05  -6.7346829e-05  -3.3567082e-05  -4.8607749e-05  -2.5702639e-05  -3.2630213e-05  -3.7937049e-05  -4.6643709e-05  -3.2926172e-05  -1.0578205e-04  -4.3895839e-05  -6.0727173e-05  -5.5382752e-05  -5.3776996e-05  -6.9396037e-05  -6.1328508e-05  -7.6262904e-05  -2.0206752e-05  -2.8535465e-05  -3.0487599e-05  -5.6631167e-05  -5.9109077e-05  -7.2320137e-05  -6.4074570e-05  -1.2110754e-04  -2.4047722e-05  -6.5787091e-05  -1.7311413e-04  -5.3283110e-05  -1.4141803e-05  -3.4486882e-05  -4.8123400e-05  -6.7210737e-05  -4.5856729e-05  -6.2572957e-05  -2.8595923e-05  -3.6673391e-05  -7.9117190e-05  -3.1523773e-06  -1.9924458e-05  -3.6556697e-05  -3.7446414e-05  -2.9645139e-05  -2.9911084e-05  -7.0357717e-05  -3.8241331e-05  -2.4913318e-05  -1.0266458e-04  -5.0855233e-05  -4.4088083e-05  -5.5417347e-05  -5.7237886e-05  -4.5352153e-05  -5.5123844e-05  -4.3396436e-05  -6.2852406e-05   3.2171829e-05  -6.1047831e-05  -4.6238510e-05  -7.0166767e-06   5.1556550e-06  -4.8200276e-05  -3.3024572e-05  -3.6716878e-07   2.9872830e-07  -1.9014093e-05  -3.3260556e-05  -1.6514102e-05  -5.5071489e-05  -3.3648477e-05  -2.0571072e-05  -5.0264415e-06  -3.0046252e-05  -4.7184054e-05  -4.2633614e-06  -5.4848397e-05  -4.7540028e-05   2.7284665e-06  -3.4848618e-05  -4.7422775e-05  -5.4885545e-05  -4.5969435e-05  -7.7897837e-05  -3.9655776e-05  -2.2468764e-05  -3.3660859e-05  -3.0261249e-05  -6.0816063e-05  -3.9788320e-05  -4.5010230e-05  -3.4490270e-05  -4.0226148e-05  -8.5317465e-05  -3.6492648e-05  -4.1973983e-05  -3.2339744e-05  -1.9709877e-05  -6.0593356e-05  -4.3098503e-05  -1.2034561e-05  -1.4945829e-04  -3.6448059e-05  -3.9065112e-05  -7.9531637e-05  -8.4197465e-05  -2.2839102e-05  -3.1558959e-05  -2.0797616e-05  -2.5116841e-05  -2.9892744e-05  -1.3131130e-05  -1.7552543e-06  -3.8263940e-05  -1.2426114e-04  -3.8279914e-05  -8.6467932e-05   1.6273682e-05  -2.1492550e-05  -2.2102030e-05  -4.6262473e-05  -4.0308990e-05  -1.9474150e-05  -3.2107779e-05  -1.2610310e-05  -4.3426240e-05  -3.9364981e-05   2.0170145e-05  -3.7538354e-05  -6.1736662e-05  -8.6504582e-05  -2.8799865e-05  -1.7492793e-05   5.0041016e-05  -1.3958952e-05  -3.3564446e-05  -6.3420452e-05   9.0799052e-06  -5.9363384e-06   1.0089929e-05   7.8705822e-05   7.0452952e-05   1.0936764e-04   4.7591218e-05   3.3608798e-05   7.2042138e-05   5.0060907e-05   5.3088571e-05   6.4245030e-05   3.8752826e-05   7.1958956e-05   7.1464861e-05   6.7515378e-05   5.3249617e-05   1.3292204e-04   8.6507572e-05   3.5301824e-05   2.5440689e-05   7.0263868e-05  -1.6015359e-05   7.9835952e-05   2.6234404e-05   5.8610039e-05   5.6448099e-05   5.0226250e-05   6.4600277e-05   7.5637182e-05   9.9958374e-06   1.5352449e-05   3.5019727e-05  -5.0310663e-05   7.7855930e-05   4.6183911e-05   3.1392375e-05  -2.0368081e-05  -3.4112796e-05   2.5063071e-05  -1.1871469e-04  -4.9943051e-05  -7.4321019e-05  -1.0995044e-04  -1.0808848e-04  -2.5532620e-05  -1.6946170e-04  -1.1734516e-04  -3.4977458e-05  -6.4949304e-05   7.2749475e-06  -7.1624659e-06  -1.0263099e-04  -3.6330390e-04  -2.9316630e-05  -1.6003287e-04  -8.6461650e-06  -5.2842952e-06  -5.0865637e-05  -4.2365599e-05   1.1286717e-05  -6.4995123e-05  -4.0467731e-05  -5.6502771e-05  -7.5108835e-05  -6.9282988e-05  -3.7776566e-05  -6.4193753e-05  -4.7321012e-05  -7.8238224e-05  -1.1419591e-04  -1.3840615e-06   1.6307463e-05  -4.2335671e-05  -1.9350817e-05  -5.4567223e-05  -2.4879633e-04  -8.7396446e-05  -3.3655883e-05  -6.1694970e-05  -8.5874627e-05  -9.6368207e-05  -3.0581889e-05  -4.9504045e-05  -1.5756379e-05  -2.9909202e-05  -8.1617668e-05  -8.8938264e-05  -1.2401649e-04  -1.0627640e-04  -1.2437381e-05  -4.2624136e-05  -2.5889153e-06  -9.2283901e-05  -7.3038121e-05  -9.1797786e-05  -1.2304493e-04  -1.2635055e-04  -1.2109799e-04  -4.7993389e-05  -5.9860900e-05  -8.1346369e-05  -4.0072531e-05  -1.2162499e-04  -1.2040832e-04  -8.8739154e-05  -7.8292135e-05  -3.8218421e-05  -4.3716959e-05  -1.0243665e-04  -4.8775143e-05  -9.4734460e-05  -1.1347905e-04  -8.1476682e-05  -2.2469438e-06  -2.6711130e-06   1.5821786e-04  -6.7696774e-05   4.8870228e-05   5.7665235e-05  -9.9223489e-05   5.5047215e-05  -1.0867942e-04   1.4153447e-04   7.1804446e-05   2.0826941e-04   1.6402806e-04   1.5351314e-04   1.8379855e-04   5.4470223e-06   2.3348372e-05   1.4229664e-04   1.3102135e-04  -9.0730603e-05   1.1507800e-04   8.4022788e-05   9.5026711e-05   1.7242609e-05   3.7993679e-05   1.0838758e-04  -1.8302386e-05   1.2416595e-04   5.1777698e-05   1.8314306e-04   8.1356519e-05   6.1952299e-06  -7.2152334e-05   2.1809835e-04  -1.1267413e-04   2.0561795e-04   2.1413971e-04   1.0225979e-04  -5.1972795e-05   3.6056024e-05
  -3.1044742e-05  -4.4660243e-05  -8.3868118e-05  -1.7602548e-04  -6.0040362e-05  -4.6315060e-05  -3.1545083e-05  -6.9206285e-05  -9.0400868e-05  -9.1105072e-05  -1.2436136e-04  -1.0452619e-04  -4.9649761e-05  -3.8795153e-05  -3.0997746e-05  -1.1816451e-04  -1.1141994e-04  -7.3659121e-05  -6.3729255e-05  -8.2941417e-05  -8.3753918e-05  -8.0773501e-05  -5.2896457e-05  -1.0910519e-04  -7.5912988e-05  -9.8500192e-05  -9.2348916e-05  -1.1858278e-04  -9.0889852e-05  -5.7718070e-05  -1.0171851e-05  -5.5420939e-05  -3.2637616e-05  -8.4073618e-05  -1.1195001e-04  -7.0942502e-05  -4.1789863e-05  -3.3727750e-05  -5.7980610e-05  -1.5992913e-04  -1.6078926e-04  -2.9335513e-04  -2.2799747e-04  -4.3350116e-05  -8.3849627e-05   2.9928608e-05  -3.8376689e-05  -3.7955051e-05  -7.2618766e-05  -1.4332896e-06   1.9011715e-05  -1.2720972e-05  -9.7662594e-05  -1.6300990e-04  -6.8605201e-05  -1.2334603e-04  -5.5463216e-05  -5.8534815e-05  -9.0162432e-05  -2.2217007e-04  -6.6282688e-05  -1.9769951e-04  -2.1002108e-04  -7.2671889e-05  -1.2792519e-04  -7.3580760e-05  -1.5269200e-07  -6.2606186e-06  -6.1938838e-05  -1.0096268e-04  -1.9803825e-04   2.9494810e-05  -1.1998120e-05   4.4823836e-05  -1.1912931e-05  -3.1912859e-05   2.7097267e-05   2.4725460e-05  -9.4932078e-05  -1.1023427e-04  -9.3548683e-05  -1.9252709e-04  -2.3810141e-04  -1.9716088e-04  -1.3196193e-04  -1.3535155e-04  -1.4303210e-04  -3.7377991e-04  -1.0091091e-04  -1.3738072e-04  -1.1312405e-04  -4.9333847e-05  -2.1400685e-04  -1.4866363e-04  -2.4572728e-04  -2.6687314e-04  -1.5193637e-04  -3.1185302e-06  -1.3295259e-04   4.5057559e-05   6.9830966e-05  -2.1643617e-04  -7.2607786e-05  -1.0109627e-04   4.1268118e-05  -8.6412374e-05   4.3980300e-05  -8.2035194e-05  -6.2030796e-05   6.1072331e-05   1.1058286e-04   3.1769562e-05   1.6360554e-04   4.4233248e-05  -4.1631224e-05  -3.0009340e-05  -4.3125178e-05  -1.1382033e-04  -3.4413483e-05  -1.8633536e-05  -5.4174241e-05  -6.5642239e-05  -5.3430199e-05  -1.9713534e-05  -3.8094528e-05  -3.8006626e-05  -6.6911878e-05  -1.2271782e-04  -4.2484616e-05  -6.6529091e-05  -3.1502120e-05  -4.7022613e-05  -2.6716245e-05  -3.3107943e-05  -3.7555740e-05  -4.5790860e-05  -3.2668441e-05  -1.0491808e-04  -4.2799896e-05  -6.0151698e-05  -5.4124877e-05  -5.0173091e-05  -6.9621760e-05  -6.3487098e-05  -7.8762256e-05  -2.2286258e-05  -2.9375334e-05  -2.7563784e-05  -5.2974242e-05  -5.8265582e-05  -7.6672938e-05  -6.6415725e-05  -1.2943782e-04  -2.5286212e-05  -6.7133016e-05  -1.7384435e-04  -5.5974863e-05  -1.3056319e-05  -3.4629348e-05  -4.6943558e-05  -6.5869499e-05  -4.3408723e-05  -5.9720315e-05  -2.5048991e-05  -3.7478623e-05  -8.1846902e-05  -1.6222363e-06  -1.4074273e-05  -3.0204552e-05  -3.5563049e-05  -2.7790690e-05  -2.9193728e-05  -6.8654410e-05  -3.5832779e-05  -2.3095784e-05  -1.0307081e-04  -5.0130128e-05  -4.2264135e-05  -5.3838870e-05  -5.4315697e-05  -4.4075083e-05  -5.6036179e-05  -4.7548493e-05  -6.6288384e-05   3.2082864e-05  -5.7812236e-05  -4.1551695e-05  -9.7863943e-06  -1.8538107e-06  -5.0004142e-05  -3.3128788e-05   2.3567991e-06   3.9241917e-06  -1.0527454e-05  -3.0757699e-05  -1.5429626e-05  -5.4553175e-05  -2.9045691e-05  -1.5715537e-05   7.7200329e-07  -2.5247527e-05  -4.3462853e-05   4.8945785e-07  -5.2835889e-05  -4.6523782e-05   1.3129350e-05  -3.0366262e-05  -4.6630006e-05  -5.4416790e-05  -4.4618749e-05  -7.7525148e-05  -3.8240362e-05  -2.1100133e-05  -2.9333417e-05  -2.9041892e-05  -5.8920805e-05  -3.7714059e-05  -4.1569467e-05  -3.0949656e-05  -3.6468967e-05  -8.7196748e-05  -3.1653274e-05  -4.6611816e-05  -2.8466352e-05  -1.3174717e-05  -5.1144311e-05  -4.0244271e-05  -1.0895757e-05  -1.5918301e-04  -4.3941381e-05  -4.1507483e-05  -8.1290800e-05  -9.0049913e-05  -2.5492466e-05  -3.8869142e-05  -1.6418795e-05  -2.4986320e-05  -3.2745708e-05  -1.1864129e-05  -3.4635750e-06  -4.2733711e-05  -1.2676758e-04  -4.1547696e-05  -9.2778812e-05   1.2379198e-05  -2.0132479e-05  -2.4106092e-05  -4.9033139e-05  -4.2650046e-05  -2.2501394e-05  -3.2609215e-05  -1.0302642e-05  -4.7887223e-05  -3.6636258e-05   2.0503503e-05  -3.8508194e-05  -6.2669610e-05  -8.7133820e-05  -3.4173329e-05  -1.9329303e-05   4.4162356e-05  -1.3793248e-05  -3.3952356e-05  -6.1179245e-05   1.0857187e-05  -9.7723677e-06   1.6496074e-05   8.3379993e-05   7.7151585e-05   1.2259670e-04   5.1744378e-05   3.8725929e-05   7.7173224e-05   6.0208162e-05   6.3661512e-05   7.1821767e-05   5.0784952e-05   8.3964651e-05   7.6989174e-05   7.2515979e-05   5.2310088e-05   1.3535176e-04   9.9467481e-05   4.7320004e-05   3.1935998e-05   8.2714473e-05  -1.3111361e-05   8.4891558e-05   3.2587212e-05   6.6115604e-05   6.1086310e-05   6.1222635e-05   7.0347788e-05   8.6377124e-05   1.8074611e-05   2.0286836e-05   3.7625414e-05  -4.0639177e-05   7.8372029e-05   5.3747769e-05   3.9833438e-05  -1.4056016e-05  -3.2124933e-05   2.8409186e-05  -1.2195026e-04  -5.5761890e-05  -7.9083713e-05  -1.2066174e-04  -1.1078608e-04  -2.3051204e-05  -1.7929785e-04  -1.1779354e-04  -3.5560335e-05  -6.5705127e-05   1.3275199e-05   2.5399618e-06  -1.0675549e-04  -3.6920773e-04  -2.9095120e-05  -1.6865234e-04  -5.2350288e-06  -2.9387593e-06  -4.5473506e-05  -3.3549782e-05   1.5661772e-05  -6.0538327e-05  -3.8021283e-05  -5.3117308e-05  -7.4981583e-05  -6.3934269e-05  -3.9050151e-05  -6.1293382e-05  -4.5281578e-05  -8.5586781e-05  -1.2588077e-04   6.4024974e-06   2.0047797e-05  -3.9064924e-05  -1.3687552e-05  -5.3985870e-05  -2.6011015e-04  -9.4062961e-05  -4.8285704e-05  -6.6527264e-05  -9.3899278e-05  -9.6315013e-05  -3.5540701e-05  -5.4378160e-05  -2.3168032e-05  -3.8484886e-05  -8.6224118e-05  -9.4978743e-05  -1.2824388e-04  -1.1286843e-04  -1.6006584e-05  -5.9252294e-05  -8.4033096e-06  -9.9758542e-05  -7.1050742e-05  -9.3106926e-05  -1.2578566e-04  -1.3189284e-04  -1.2613614e-04  -5.4685048e-05  -6.3278418e-05  -8.9232923e-05  -4.5533053e-05  -1.2852151e-04  -1.2558373e-04  -9.1888914e-05  -8.2735519e-05  -4.4931103e-05  -4.8254276e-05  -1.1307936e-04  -5.4666668e-05  -1.0055701e-04  -1.1938778e-04  -8.2021543e-05  -1.1295986e-06  -5.7766271e-06   1.6435750e-04  -6.6874456e-05   6.1307601e-05   5.2345040e-05  -9.7716136e-05   6.6022910e-05  -1.0108451e-04   1.5180681e-04   8.1828005e-05   2.1703763e-04   1.7746778e-04   1.7328130e-04   2.0120222e-04   2.6900733e-05   3.1309364e-05   1.4442328e-04   1.3111504e-04  -8.6124150e-05   1.2806932e-04   9.7085023e-05   1.0618137e-04   1.3357874e-05   4.4633801e-05   1.0525434e-04  -1.8512032e-05   1.3199852e-04   5.4063557e-05   1.9054422e-04   8.8998999e-05   7.2122851e-06  -8.4769546e-05   2.2938640e-04  -1.1350327e-04   2.1226276e-04   2.2586171e-04   1.0645334e-04  -3.9170559e-05   3.9483458e-05
  -4.4621130e-05  -4.8780396e-05  -9.2389149e-05  -1.9389529e-04  -6.8693694e-05  -5.1905012e-05  -3.9092146e-05  -7.6785943e-05  -9.8656974e-05  -9.8036873e-05  -1.3579640e-04  -1.1347890e-04  -5.5232809e-05  -5.3829555e-05  -3.6395070e-05  -1.2825506e-04  -1.1755434e-04  -8.4108591e-05  -7.0876091e-05  -9.3427636e-05  -9.5572206e-05  -8.8070201e-05  -6.0065757e-05  -1.2125671e-04  -8.3332086e-05  -1.0967410e-04  -1.0125387e-04  -1.2788246e-04  -9.9650561e-05  -6.2148746e-05  -1.5178213e-05  -6.5461938e-05  -3.6347858e-05  -8.9811844e-05  -1.2022661e-04  -7.7081551e-05  -4.5722918e-05  -3.6163513e-05  -6.2322442e-05  -1.7174310e-04  -1.6554687e-04  -3.0516062e-04  -2.5399341e-04  -4.6733595e-05  -7.5097660e-05   4.3031910e-05  -2.9890672e-05  -3.2898341e-05  -7.5508574e-05   4.4656241e-06   3.6439842e-05  -6.0653382e-07  -1.0226817e-04  -1.7195159e-04  -7.0404545e-05  -1.2629898e-04  -5.2212553e-05  -6.5546312e-05  -9.0780920e-05  -2.4567141e-04  -6.9978280e-05  -2.1494121e-04  -2.2733506e-04  -7.1146222e-05  -1.3307372e-04  -7.1847703e-05   1.3029727e-05   8.3346813e-06  -5.6679701e-05  -1.0837797e-04  -2.1515706e-04   4.2302083e-05  -4.7937038e-06   5.7565034e-05  -5.3533078e-06  -2.2458438e-05   2.4360721e-05   3.5851520e-05  -8.8349335e-05  -9.7322882e-05  -8.0456448e-05  -1.8168412e-04  -2.3112661e-04  -2.4120600e-04  -1.1789450e-04  -1.3057576e-04  -1.4495125e-04  -3.6583306e-04  -8.8941246e-05  -1.2760471e-04  -1.0836805e-04  -1.6740448e-05  -2.1029934e-04  -1.3712459e-04  -2.4741495e-04  -2.5464152e-04  -1.3693016e-04   1.2294257e-06  -1.1712272e-04   7.5486278e-05   8.3557904e-05  -1.9964935e-04  -5.6721933e-05  -8.9179647e-05   6.1785584e-05  -9.4593461e-05   7.2436680e-05  -8.2068336e-05  -3.7444477e-05   5.4392401e-05   1.1779470e-04   6.8353513e-05   2.1320343e-04   5.4189886e-05  -4.7648989e-05  -2.9294408e-05  -4.1463491e-05  -1.0698117e-04  -3.3222845e-05  -1.8486681e-05  -5.7725037e-05  -6.7755007e-05  -5.1962799e-05  -1.6471474e-05  -3.5255483e-05  -3.7901048e-05  -6.9079082e-05  -1.3059531e-04  -4.4103851e-05  -6.4067316e-05  -2.8077572e-05  -4.4007998e-05  -2.6749192e-05  -3.2340318e-05  -3.5692906e-05  -4.3696738e-05  -3.1574962e-05  -1.0183635e-04  -4.0786251e-05  -5.7980985e-05  -5.1544307e-05  -4.5163613e-05  -6.8400754e-05  -6.4763432e-05  -8.0110938e-05  -2.3267417e-05  -2.9296193e-05  -2.3605488e-05  -4.7772669e-05  -5.6387259e-05  -8.0317092e-05  -6.7786077e-05  -1.3651490e-04  -2.6264419e-05  -6.7756972e-05  -1.7204274e-04  -5.8182925e-05  -1.1752965e-05  -3.4147747e-05  -4.5114614e-05  -6.3552005e-05  -4.0288487e-05  -5.5878137e-05  -2.0874450e-05  -3.8098351e-05  -8.3352568e-05   2.6885821e-07  -7.3902642e-06  -2.2729967e-05  -3.3083880e-05  -2.5632081e-05  -2.8090179e-05  -6.5356172e-05  -3.2380209e-05  -2.0769001e-05  -1.0159386e-04  -4.7925523e-05  -3.9473422e-05  -5.1153393e-05  -5.0020329e-05  -4.2273348e-05  -5.5754950e-05  -5.1636632e-05  -6.8303296e-05   3.2139269e-05  -5.3282610e-05  -3.6262032e-05  -1.4669991e-05  -1.0199065e-05  -5.1459116e-05  -3.1789318e-05   5.6684837e-06   7.9927334e-06  -8.0919065e-07  -2.7114729e-05  -1.3556061e-05  -5.2379825e-05  -2.3270170e-05  -9.9171762e-06   7.3133909e-06  -1.9121536e-05  -3.8010019e-05   6.1245436e-06  -4.9035862e-05  -4.4749691e-05   2.4202149e-05  -2.4764539e-05  -4.4607747e-05  -5.2772568e-05  -4.1926896e-05  -7.5273818e-05  -3.5670772e-05  -1.8818396e-05  -2.3806855e-05  -2.6922101e-05  -5.5313530e-05  -3.4414732e-05  -3.6856561e-05  -2.6485894e-05  -3.1525926e-05  -8.7524993e-05  -2.5876000e-05  -5.0592879e-05  -2.3773543e-05  -5.9716500e-06  -4.0376933e-05  -3.6418165e-05  -9.2843948e-06  -1.6736222e-04  -5.0988825e-05  -4.3459216e-05  -8.0966546e-05  -9.4730532e-05  -2.7933937e-05  -4.5474414e-05  -1.2257535e-05  -2.4486239e-05  -3.5403663e-05  -1.0457656e-05  -5.2732509e-06  -4.6279947e-05  -1.2647445e-04  -4.3338730e-05  -9.6412182e-05   8.4611938e-06  -1.8423194e-05  -2.6242696e-05  -5.1442835e-05  -4.4581198e-05  -2.4859401e-05  -3.2414391e-05  -6.6013484e-06  -5.1410878e-05  -3.2784386e-05   2.1115529e-05  -3.8452820e-05  -6.2252327e-05  -8.6092816e-05  -3.8465610e-05  -2.1130972e-05   3.8519610e-05  -1.2708869e-05  -3.3080231e-05  -5.7610124e-05   1.3558217e-05  -1.3156047e-05   2.4205375e-05   8.7939699e-05   8.4172088e-05   1.3648918e-04   5.6339087e-05   4.3957791e-05   8.1208850e-05   6.9973448e-05   7.4649136e-05   7.9835115e-05   6.4323743e-05   9.6731274e-05   8.1874012e-05   7.5969388e-05   4.9877053e-05   1.3572539e-04   1.1316952e-04   6.0529630e-05   3.9423274e-05   9.5116578e-05  -7.7513854e-06   8.9772205e-05   3.8964374e-05   7.3438483e-05   6.5783706e-05   7.2367937e-05   7.5958098e-05   9.7219056e-05   2.6901439e-05   2.5355565e-05   4.0668199e-05  -2.7914202e-05   7.8861967e-05   6.0914052e-05   4.8871987e-05  -7.3346234e-06  -2.9891250e-05   3.2037330e-05  -1.2310596e-04  -6.1208812e-05  -8.2824911e-05  -1.2956758e-04  -1.1155617e-04  -1.9827916e-05  -1.8849629e-04  -1.1570106e-04  -3.5139472e-05  -6.4517871e-05   2.0973900e-05   1.3682902e-05  -1.0982445e-04  -3.7308615e-04  -2.7938982e-05  -1.7611278e-04  -7.6203196e-07   9.8581950e-07  -3.7856172e-05  -2.2845786e-05   2.1153621e-05  -5.4219990e-05  -3.4196587e-05  -4.8274315e-05  -7.3214494e-05  -5.6750954e-05  -3.9139546e-05  -5.7078503e-05  -4.2543451e-05  -9.3124899e-05  -1.3668122e-04   1.4342013e-05   2.4189764e-05  -3.5048672e-05  -7.7699679e-06  -5.3257376e-05  -2.6935099e-04  -1.0051252e-04  -6.2235883e-05  -7.0113963e-05  -1.0046086e-04  -9.2592197e-05  -3.9558175e-05  -5.8103053e-05  -2.9451367e-05  -4.6172513e-05  -8.8931276e-05  -9.9461024e-05  -1.3036805e-04  -1.1726020e-04  -1.8115713e-05  -7.3748450e-05  -1.3878557e-05  -1.0501340e-04  -6.7174595e-05  -9.2315133e-05  -1.2625884e-04  -1.3507497e-04  -1.2907266e-04  -6.0299533e-05  -6.5485016e-05  -9.5321179e-05  -5.0148832e-05  -1.3311906e-04  -1.2839942e-04  -9.2849436e-05  -8.5094695e-05  -5.0236332e-05  -5.1021719e-05  -1.2290964e-04  -5.9613698e-05  -1.0438078e-04  -1.2330678e-04  -8.1464766e-05   1.7222666e-06  -7.4724645e-06   1.6699276e-04  -6.6040537e-05   7.3606236e-05   4.4556338e-05  -9.5339073e-05   7.6010806e-05  -9.0044631e-05   1.6075085e-04   9.0731689e-05   2.2218501e-04   1.8800219e-04   1.9091729e-04   2.1635898e-04   4.9409155e-05   3.9129273e-05   1.4381883e-04   1.2950660e-04  -8.1019440e-05   1.3909494e-04   1.0961135e-04   1.1727093e-04   9.6510426e-06   5.0426320e-05   9.9750959e-05  -1.7828710e-05   1.3736094e-04   5.3765453e-05   1.9399415e-04   9.5352960e-05   9.5162025e-06  -9.5156906e-05   2.3649124e-04  -1.1243909e-04   2.1614655e-04   2.3373855e-04   1.0857041e-04  -2.6188955e-05   4.3095302e-05
  -5.8625924e-05  -5.2485347e-05  -1.0001396e-04  -2.1026275e-04  -7.6964738e-05  -5.6977901e-05  -4.6520696e-05  -8.3595187e-05  -1.0608060e-04  -1.0400472e-04  -1.4600177e-04  -1.2142673e-04  -6.0477463e-05  -6.8716668e-05  -4.1446858e-05  -1.3696002e-04  -1.2231218e-04  -9.4119220e-05  -7.7399356e-05  -1.0308797e-04  -1.0662717e-04  -9.4592943e-05  -6.6858169e-05  -1.3264062e-04  -9.0136583e-05  -1.2001739e-04  -1.0924598e-04  -1.3595013e-04  -1.0759650e-04  -6.6301652e-05  -2.0146909e-05  -7.5258860e-05  -3.9607461e-05  -9.4739664e-05  -1.2727603e-04  -8.2348263e-05  -4.9114074e-05  -3.8335679e-05  -6.6783877e-05  -1.8231893e-04  -1.6660770e-04  -3.1253772e-04  -2.7704345e-04  -4.9584091e-05  -6.2985331e-05   5.6643277e-05  -1.9664968e-05  -2.6854536e-05  -7.7412588e-05   1.0191310e-05   5.4834450e-05   1.4128335e-05  -1.0485582e-04  -1.7871823e-04  -7.1808706e-05  -1.2692858e-04  -4.7678016e-05  -7.1946793e-05  -9.1266903e-05  -2.6638744e-04  -7.2504534e-05  -2.3005014e-04  -2.4156040e-04  -6.8206946e-05  -1.3704456e-04  -6.9282644e-05   2.7707203e-05   2.5439085e-05  -4.9375970e-05  -1.1576346e-04  -2.2930623e-04   5.5558542e-05   3.0054139e-06   7.0699627e-05   2.6453739e-06  -1.1383174e-05   1.8141160e-05   4.6369149e-05  -8.1206178e-05  -8.0227692e-05  -6.5632161e-05  -1.6715949e-04  -2.2666418e-04  -2.7851103e-04  -1.0283640e-04  -1.2169580e-04  -1.4374812e-04  -3.5228721e-04  -7.3443132e-05  -1.2032749e-04  -1.0691411e-04   1.5648641e-05  -2.0409141e-04  -1.2356183e-04  -2.4518375e-04  -2.4039924e-04  -1.2252089e-04   3.9932891e-06  -9.7731112e-05   1.0930196e-04   9.6550982e-05  -1.7686378e-04  -3.8110820e-05  -7.1545298e-05   8.0904691e-05  -9.6676145e-05   9.4559731e-05  -8.7135109e-05  -1.5490017e-05   4.8059758e-05   1.2336444e-04   1.0167390e-04   2.6538333e-04   6.6951349e-05  -5.2037900e-05  -2.7611336e-05  -3.8575327e-05  -9.7058012e-05  -3.0858911e-05  -1.7482942e-05  -6.0054355e-05  -6.8476352e-05  -4.8946931e-05  -1.2131044e-05  -3.0767245e-05  -3.6089089e-05  -7.0194936e-05  -1.3670949e-04  -4.5056697e-05  -6.0035162e-05  -2.3330084e-05  -3.9601501e-05  -2.5691973e-05  -3.0229328e-05  -3.2310189e-05  -4.0380075e-05  -2.9641844e-05  -9.6631643e-05  -3.7901939e-05  -5.4237355e-05  -4.7672417e-05  -3.8882563e-05  -6.5770476e-05  -6.5158316e-05  -8.0331160e-05  -2.3026967e-05  -2.8204432e-05  -1.8732212e-05  -4.1193139e-05  -5.3630702e-05  -8.3226571e-05  -6.8187765e-05  -1.4216480e-04  -2.6933390e-05  -6.7648471e-05  -1.6792710e-04  -5.9833397e-05  -1.0252994e-05  -3.3024354e-05  -4.2805220e-05  -6.0413567e-05  -3.6637430e-05  -5.1201593e-05  -1.6171781e-05  -3.8595030e-05  -8.3661797e-05   2.5142423e-06  -3.8733953e-08  -1.4415230e-05  -3.0064239e-05  -2.3274538e-05  -2.6577547e-05  -6.0529499e-05  -2.7947031e-05  -1.7997088e-05  -9.8309416e-05  -4.4245326e-05  -3.5773119e-05  -4.7392704e-05  -4.4482705e-05  -4.0071786e-05  -5.4418315e-05  -5.5599196e-05  -6.8749506e-05   3.2624264e-05  -4.7695466e-05  -3.0652457e-05  -2.1694532e-05  -1.9602022e-05  -5.2633566e-05  -2.8978599e-05   9.4813812e-06   1.2401757e-05   9.7003378e-06  -2.2439151e-05  -1.0945431e-05  -4.8664901e-05  -1.6567709e-05  -3.4197406e-06   1.4340460e-05  -1.1907333e-05  -3.1079201e-05   1.2436372e-05  -4.3596045e-05  -4.2368588e-05   3.5465188e-05  -1.8360987e-05  -4.1459402e-05  -5.0071957e-05  -3.8008396e-05  -7.1239084e-05  -3.2022993e-05  -1.5680468e-05  -1.7279230e-05  -2.3937148e-05  -5.0140755e-05  -3.0071044e-05  -3.1087082e-05  -2.1292446e-05  -2.5562790e-05  -8.6356057e-05  -1.9460053e-05  -5.3805497e-05  -1.8519657e-05   1.5645398e-06  -2.8750945e-05  -3.1738964e-05  -7.2541234e-06  -1.7370746e-04  -5.7264128e-05  -4.4728054e-05  -7.8281302e-05  -9.8027104e-05  -2.9988560e-05  -5.0939675e-05  -8.4284816e-06  -2.3474619e-05  -3.7627030e-05  -8.8103215e-06  -6.9340138e-06  -4.8658872e-05  -1.2335961e-04  -4.3408387e-05  -9.6987430e-05   4.9045287e-06  -1.6374567e-05  -2.8272315e-05  -5.3275207e-05  -4.5785317e-05  -2.6266410e-05  -3.1441894e-05  -1.2509255e-06  -5.3744553e-05  -2.7788278e-05   2.2219988e-05  -3.7215427e-05  -6.0345169e-05  -8.3431976e-05  -4.1338492e-05  -2.2635526e-05   3.3543473e-05  -1.0513821e-05  -3.0750231e-05  -5.2746888e-05   1.7186590e-05  -1.5802775e-05   3.3240705e-05   9.2532548e-05   9.1587880e-05   1.5114499e-04   6.1422674e-05   4.9271694e-05   8.4002845e-05   7.9020776e-05   8.5843018e-05   8.8291581e-05   7.9232422e-05   1.1012129e-04   8.6112927e-05   7.7896460e-05   4.6068907e-05   1.3441954e-04   1.2755663e-04   7.4718129e-05   4.7890341e-05   1.0732127e-04   2.8335838e-08   9.4527329e-05   4.5255107e-05   8.0532201e-05   7.0629499e-05   8.3497546e-05   8.1582978e-05   1.0808902e-04   3.6270013e-05   3.0324365e-05   4.4179419e-05  -1.2558746e-05   7.9585973e-05   6.7528221e-05   5.8382255e-05  -5.6754114e-07  -2.7534641e-05   3.5916423e-05  -1.2201987e-04  -6.6026829e-05  -8.5308890e-05  -1.3630946e-04  -1.1031047e-04  -1.5900871e-05  -1.9692940e-04  -1.1133735e-04  -3.3626349e-05  -6.1246307e-05   3.0317732e-05   2.5972834e-05  -1.1179200e-04  -3.7556942e-04  -2.5838213e-05  -1.8224254e-04   4.6980285e-06   6.5502827e-06  -2.8233527e-05  -1.0563120e-05   2.7689257e-05  -4.6084119e-05  -2.8995540e-05  -4.2033142e-05  -6.9676645e-05  -4.7868731e-05  -3.8004226e-05  -5.1608631e-05  -3.9151623e-05  -1.0077726e-04  -1.4622378e-04   2.2232651e-05   2.8678358e-05  -3.0487178e-05  -1.8684805e-06  -5.2607691e-05  -2.7670579e-04  -1.0667002e-04  -7.4712719e-05  -7.2289871e-05  -1.0528123e-04  -8.5048466e-05  -4.2307775e-05  -6.0475324e-05  -3.4275758e-05  -5.2571825e-05  -8.9575039e-05  -1.0227013e-04  -1.3034942e-04  -1.1927720e-04  -1.8618758e-05  -8.5342214e-05  -1.8732278e-05  -1.0776803e-04  -6.1518347e-05  -8.9455141e-05  -1.2455270e-04  -1.3579950e-04  -1.2983440e-04  -6.4564793e-05  -6.6408861e-05  -9.9388431e-05  -5.3711406e-05  -1.3524823e-04  -1.2876876e-04  -9.1526571e-05  -8.5306539e-05  -5.3890530e-05  -5.1969285e-05  -1.3131698e-04  -6.3426305e-05  -1.0607063e-04  -1.2517050e-04  -8.0176489e-05   6.2398755e-06  -7.6129311e-06   1.6601795e-04  -6.5487266e-05   8.5279709e-05   3.4494511e-05  -9.2555263e-05   8.4483084e-05  -7.5874107e-05   1.6836871e-04   9.8214091e-05   2.2366297e-04   1.9517695e-04   2.0565651e-04   2.2896060e-04   7.2156461e-05   4.6581025e-05   1.4059625e-04   1.2642720e-04  -7.6068588e-05   1.4777295e-04   1.2088306e-04   1.2791162e-04   6.3698586e-06   5.4948845e-05   9.2103253e-05  -1.6386226e-05   1.3979155e-04   5.0567957e-05   1.9322087e-04   1.0011649e-04   1.3182681e-05  -1.0291673e-04   2.3929596e-04  -1.0970014e-04   2.1723633e-04   2.3744128e-04   1.0854343e-04  -1.3946152e-05   4.6818671e-05
  -7.2789287e-05  -5.5760698e-05  -1.0662173e-04  -2.2486647e-04  -8.4740591e-05  -6.1441333e-05  -5.3662074e-05  -8.9453388e-05  -1.1254199e-04  -1.0893901e-04  -1.5481463e-04  -1.2826079e-04  -6.5273285e-05  -8.2947394e-05  -4.6002470e-05  -1.4402296e-04  -1.2564288e-04  -1.0349080e-04  -8.3225747e-05  -1.1173089e-04  -1.1670778e-04  -1.0027637e-04  -7.3144065e-05  -1.4311261e-04  -9.6251358e-05  -1.2935129e-04  -1.1623993e-04  -1.4268502e-04  -1.1461173e-04  -7.0127870e-05  -2.5015460e-05  -8.4566950e-05  -4.2417244e-05  -9.8794978e-05  -1.3301148e-04  -8.6741908e-05  -5.2003837e-05  -4.0248213e-05  -7.1587469e-05  -1.9156910e-04  -1.6420448e-04  -3.1566373e-04  -2.9662016e-04  -5.1975852e-05  -4.8121110e-05   7.0230799e-05  -8.1870223e-06  -2.0183990e-05  -7.8486162e-05   1.5279903e-05   7.3569780e-05   3.1048842e-05  -1.0539698e-04  -1.8335521e-04  -7.2957803e-05  -1.2547378e-04  -4.2167463e-05  -7.7761444e-05  -9.1832798e-05  -2.8372353e-04  -7.3906653e-05  -2.4266211e-04  -2.5231023e-04  -6.4179021e-05  -1.4008114e-04  -6.6196513e-05   4.3250128e-05   4.4642293e-05  -4.0289092e-05  -1.2311312e-04  -2.4019613e-04   6.8767461e-05   1.0988394e-05   8.3745025e-05   1.1936101e-05   9.2432343e-07   9.1223774e-06   5.5883351e-05  -7.3689179e-05  -5.8726932e-05  -4.9764527e-05  -1.4955333e-04  -2.2666685e-04  -3.0487721e-04  -8.7715437e-05  -1.0847716e-04  -1.3850211e-04  -3.3352653e-04  -5.4898408e-05  -1.1673065e-04  -1.1011495e-04   4.5521540e-05  -1.9576603e-04  -1.0827205e-04  -2.3898902e-04  -2.2481696e-04  -1.0911281e-04   5.0410707e-06  -7.5353755e-05   1.4640405e-04   1.0839486e-04  -1.4820811e-04  -1.6785141e-05  -4.7689094e-05   9.7756434e-05  -9.1363678e-05   1.0769318e-04  -9.6979421e-05   1.6544242e-06   4.3605153e-05   1.2797382e-04   1.2920578e-04   3.1806448e-04   8.2730718e-05  -5.4398678e-05  -2.4976155e-05  -3.4479125e-05  -8.4301765e-05  -2.7304484e-05  -1.5573970e-05  -6.1025905e-05  -6.7784404e-05  -4.4430198e-05  -6.7426572e-06  -2.4633930e-05  -3.2490869e-05  -7.0245472e-05  -1.4088352e-04  -4.5322785e-05  -5.4579557e-05  -1.7369520e-05  -3.3904945e-05  -2.3486414e-05  -2.6738597e-05  -2.7438844e-05  -3.5911746e-05  -2.6897316e-05  -8.9479474e-05  -3.4224784e-05  -4.9014094e-05  -4.2592864e-05  -3.1509081e-05  -6.1834293e-05  -6.4716456e-05  -7.9493885e-05  -2.1522241e-05  -2.6057652e-05  -1.3108330e-05  -3.3464349e-05  -5.0206417e-05  -8.5414918e-05  -6.7667187e-05  -1.4626076e-04  -2.7257257e-05  -6.6815633e-05  -1.6179358e-04  -6.0863574e-05  -8.5783211e-06  -3.1264699e-05  -4.0200603e-05  -5.6636061e-05  -3.2609739e-05  -4.5863389e-05  -1.1048731e-05  -3.9021222e-05  -8.2849263e-05   5.0903832e-06   7.7817430e-06  -5.5796856e-06  -2.6569603e-05  -2.0814716e-05  -2.4635681e-05  -5.4300862e-05  -2.2634265e-05  -1.4856844e-05  -9.3362588e-05  -3.9163432e-05  -3.1257480e-05  -4.2622200e-05  -3.7880911e-05  -3.7601638e-05  -5.2245867e-05  -5.9370602e-05  -6.7567106e-05   3.3791139e-05  -4.1335251e-05  -2.5001357e-05  -3.0723377e-05  -2.9718546e-05  -5.3604844e-05  -2.4743346e-05   1.3682387e-05   1.7042469e-05   2.0512032e-05  -1.6874910e-05  -7.6895902e-06  -4.3601565e-05  -9.2262435e-06   3.4967403e-06   2.1565698e-05  -3.9069992e-06  -2.3011891e-05   1.9177143e-05  -3.6739319e-05  -3.9550836e-05   4.6438481e-05  -1.1527072e-05  -3.7351269e-05  -4.6485540e-05  -3.3037807e-05  -6.5597301e-05  -2.7423758e-05  -1.1790591e-05  -9.9938702e-06  -2.0159397e-05  -4.3627687e-05  -2.4926479e-05  -2.4529954e-05  -1.5592607e-05  -1.8785651e-05  -8.3803753e-05  -1.2720072e-05  -5.6182231e-05  -1.2991055e-05   9.0931983e-06  -1.6717997e-05  -2.6335408e-05  -4.8739067e-06  -1.7794605e-04  -6.2467530e-05  -4.5121741e-05  -7.3050603e-05  -9.9768519e-05  -3.1481405e-05  -5.4872188e-05  -4.9766888e-06  -2.1795790e-05  -3.9170916e-05  -6.7979590e-06  -8.1857006e-06  -4.9680837e-05  -1.1751446e-04  -4.1591363e-05  -9.4257467e-05   2.0779872e-06  -1.3992273e-05  -2.9921471e-05  -5.4296729e-05  -4.5932735e-05  -2.6473162e-05  -2.9627521e-05   5.9570431e-06  -5.4681871e-05  -2.1642185e-05   2.4015098e-05  -3.4683656e-05  -5.6853906e-05  -7.9268771e-05  -4.2530953e-05  -2.3543746e-05   2.9577411e-05  -7.0593267e-06  -2.6820127e-05  -4.6646797e-05   2.1682250e-05  -1.7467058e-05   4.3573282e-05   9.7273363e-05   9.9423615e-05   1.6660774e-04   6.6982379e-05   5.4621671e-05   8.5457444e-05   8.7051385e-05   9.7007909e-05   9.7147921e-05   9.5281639e-05   1.2393207e-04   8.9719843e-05   7.8418402e-05   4.1079117e-05   1.3188823e-04   1.4250838e-04   8.9613172e-05   5.7256953e-05   1.1920844e-04   1.0003743e-05   9.9166103e-05   5.1353222e-05   8.7350218e-05   7.5688341e-05   9.4447941e-05   8.7372455e-05   1.1889506e-04   4.5943381e-05   3.4956697e-05   4.8134225e-05   4.8281900e-06   8.0748444e-05   7.3457262e-05   6.8191574e-05   5.8704038e-06  -2.5179681e-05   3.9976339e-05  -1.1858200e-04  -6.9969987e-05  -8.6309452e-05  -1.4060694e-04  -1.0702276e-04  -1.1326167e-05  -2.0443131e-04  -1.0509610e-04  -3.0971323e-05  -5.5835883e-05   4.1159524e-05   3.9059881e-05  -1.1265616e-04  -3.7727030e-04  -2.2810515e-05  -1.8693528e-04   1.1015977e-05   1.3730894e-05  -1.6933553e-05   2.9269531e-06   3.5127047e-05  -3.6238427e-05  -2.2481657e-05  -3.4505486e-05  -6.4296466e-05  -3.7487318e-05  -3.5685847e-05  -4.4974480e-05  -3.5163147e-05  -1.0847374e-04  -1.5416808e-04   2.9921143e-05   3.3463710e-05  -2.5605623e-05   3.7434883e-06  -5.2273568e-05  -2.8244016e-04  -1.1246525e-04  -8.4986437e-05  -7.2964854e-05  -1.0817089e-04  -7.3738114e-05  -4.3520025e-05  -6.1357000e-05  -3.7410129e-05  -5.7364703e-05  -8.8097433e-05  -1.0338004e-04  -1.2822849e-04  -1.1885259e-04  -1.7492273e-05  -9.3459571e-05  -2.2720461e-05  -1.0786086e-04  -5.4251253e-05  -8.4661903e-05  -1.2084767e-04  -1.3406930e-04  -1.2843406e-04  -6.7271687e-05  -6.6041217e-05  -1.0132322e-04  -5.6061627e-05  -1.3486248e-04  -1.2671616e-04  -8.7941147e-05  -8.3423666e-05  -5.5777413e-05  -5.1166851e-05  -1.3767721e-04  -6.5980363e-05  -1.0561408e-04  -1.2499557e-04  -7.8538485e-05   1.2243300e-05  -6.1802451e-06   1.6143757e-04  -6.5499595e-05   9.5852433e-05   2.2440978e-05  -8.9860233e-05   9.0963863e-05  -5.9047334e-05   1.7467243e-04   1.0403625e-04   2.2157550e-04   1.9864677e-04   2.1682702e-04   2.3883136e-04   9.4338441e-05   5.3470076e-05   1.3495554e-04   1.2210710e-04  -7.1931784e-05   1.5380124e-04   1.3015773e-04   1.3763157e-04   3.7027035e-06   5.7806983e-05   8.2573338e-05  -1.4395939e-05   1.3888618e-04   4.4261457e-05   1.8811507e-04   1.0303591e-04   1.8197817e-05  -1.0785596e-04   2.3788260e-04  -1.0561489e-04   2.1554698e-04   2.3678587e-04   1.0640082e-04  -3.3114671e-06   5.0544231e-05
  -8.6840198e-05  -5.8603688e-05  -1.1212944e-04  -2.3749512e-04  -9.1927006e-05  -6.5226525e-05  -6.0354367e-05  -9.4212687e-05  -1.1793429e-04  -1.1279630e-04  -1.6210739e-04  -1.3389476e-04  -6.9516785e-05  -9.6046538e-05  -4.9927723e-05  -1.4923521e-04  -1.2753217e-04  -1.1203260e-04  -8.8307564e-05  -1.1920191e-04  -1.2564215e-04  -1.0507425e-04  -7.8806764e-05  -1.5255061e-04  -1.0161428e-04  -1.3752520e-04  -1.2218234e-04  -1.4802423e-04  -1.2060770e-04  -7.3571562e-05  -2.9737308e-05  -9.3151782e-05  -4.4789500e-05  -1.0193433e-04  -1.3738824e-04  -9.0310705e-05  -5.4461804e-05  -4.1910200e-05  -7.6959287e-05  -1.9946220e-04  -1.5877419e-04  -3.1492129e-04  -3.1239011e-04  -5.4022763e-05  -3.1275301e-05   8.3281676e-05   3.9863933e-06  -1.3284506e-05  -7.8928782e-05   1.9289380e-05   9.2024148e-05   4.9616926e-05  -1.0394854e-04  -1.8600847e-04  -7.3972809e-05  -1.2228960e-04  -3.6046250e-05  -8.3069910e-05  -9.2647738e-05  -2.9724289e-04  -7.4295507e-05  -2.5252395e-04  -2.5935082e-04  -5.9439350e-05  -1.4246887e-04  -6.2906814e-05   5.8974903e-05   6.5458584e-05  -2.9748772e-05  -1.3040241e-04  -2.4771994e-04   8.1443876e-05   1.8745039e-05   9.6251454e-05   2.2344451e-05   1.4042065e-05  -1.6774720e-06   6.4084083e-05  -6.5883528e-05  -3.2649523e-05  -3.3571138e-05  -1.2958434e-04  -2.3286500e-04  -3.1635783e-04  -7.3403257e-05  -9.0812521e-05  -1.2826543e-04  -3.1004175e-04  -3.3939015e-05  -1.1766613e-04  -1.1906863e-04   7.0634326e-05  -1.8572855e-04  -9.1482575e-05  -2.2889518e-04  -2.0843470e-04  -9.6849735e-05   4.3915641e-06  -5.0642639e-05   1.8671148e-04   1.1877424e-04  -1.1392856e-04   7.2557074e-06  -1.7296047e-05   1.1169171e-04  -7.7758044e-05   1.0964072e-04  -1.1077160e-04   1.2031890e-05   4.2643339e-05   1.3256874e-04   1.4877521e-04   3.6895369e-04   1.0157817e-04  -5.4425994e-05  -2.1452943e-05  -2.9245497e-05  -6.9086111e-05  -2.2592800e-05  -1.2758697e-05  -6.0575342e-05  -6.5730035e-05  -3.8538357e-05  -4.1257156e-07  -1.6939841e-05  -2.7129140e-05  -6.9264078e-05  -1.4301696e-04  -4.4915027e-05  -4.7913425e-05  -1.0376747e-05  -2.7078849e-05  -2.0138878e-05  -2.1906349e-05  -2.1177633e-05  -3.0411516e-05  -2.3402446e-05  -8.0628702e-05  -2.9862523e-05  -4.2468985e-05  -3.6441151e-05  -2.3267818e-05  -5.6754225e-05  -6.3527283e-05  -7.7713871e-05  -1.8792973e-05  -2.2870538e-05  -6.9378525e-06  -2.4869572e-05  -4.6366737e-05  -8.6938194e-05  -6.6316952e-05  -1.4873119e-04  -2.7214203e-05  -6.5286655e-05  -1.5400666e-04  -6.1224380e-05  -6.7530251e-06  -2.8902602e-05  -3.7492109e-05  -5.2422479e-05  -2.8363775e-05  -4.0048329e-05  -5.6187936e-06  -3.9418429e-05  -8.1031582e-05   7.9521422e-06   1.5842634e-05   3.4396247e-06  -2.2673162e-05  -1.8337499e-05  -2.2252630e-05  -4.6854337e-05  -1.6577748e-05  -1.1431979e-05  -8.6962943e-05  -3.2823606e-05  -2.6052614e-05  -3.6939944e-05  -3.0436914e-05  -3.4994171e-05  -4.9521322e-05  -6.2882235e-05  -6.4796382e-05   3.5836940e-05  -3.4515957e-05  -1.9564996e-05  -4.1469559e-05  -4.0162610e-05  -5.4456308e-05  -1.9201284e-05   1.8138648e-05   2.1803764e-05   3.1116162e-05  -1.0598045e-05  -3.9157486e-06  -3.7451451e-05  -1.5619079e-06   1.0528251e-05   2.8688997e-05   4.5323551e-06  -1.4216354e-05   2.6073823e-05  -2.8748893e-05  -3.6475916e-05   5.6672444e-05  -4.6631390e-06  -3.2503838e-05  -4.2225211e-05  -2.7240075e-05  -5.8598159e-05  -2.2045808e-05  -7.2946982e-06  -2.2285401e-06  -1.5697804e-05  -3.6071475e-05  -1.9276880e-05  -1.7494526e-05  -9.6257181e-06  -1.1430395e-05  -8.0034583e-05  -5.9654023e-06  -5.7700615e-05  -7.4825477e-06   1.6286670e-05  -4.6987935e-06  -2.0341054e-05  -2.2215228e-06  -1.7984181e-04  -6.6347437e-05  -4.4462602e-05  -6.5194797e-05  -9.9830552e-05  -3.2251555e-05  -5.6946309e-05  -1.8846121e-06  -1.9299359e-05  -3.9806280e-05  -4.2931266e-06  -8.7764886e-06  -4.9224794e-05  -1.0913681e-04  -3.7811075e-05  -8.8131273e-05   3.0148822e-07  -1.1278426e-05  -3.0907796e-05  -5.4279980e-05  -4.4716583e-05  -2.5285520e-05  -2.6934446e-05   1.5163494e-05  -5.4083754e-05  -1.4370518e-05   2.6671206e-05  -3.0793779e-05  -5.1738955e-05  -7.3782784e-05  -4.1874155e-05  -2.3541051e-05   2.6863100e-05  -2.2606151e-06  -2.1222595e-05  -3.9385834e-05   2.6926212e-05  -1.7965244e-05   5.5119901e-05   1.0223624e-04   1.0765183e-04   1.8283773e-04   7.2945816e-05   5.9941718e-05   8.5531728e-05   9.3826360e-05   1.0789092e-04   1.0631472e-04   1.1214780e-04   1.3789461e-04   9.2722277e-05   7.7738961e-05   3.5156504e-05   1.2863453e-04   1.5784665e-04   1.0489356e-04   6.7368370e-05   1.3068430e-04   2.1774904e-05   1.0365569e-04   5.7155173e-05   9.3851819e-05   8.0987222e-05   1.0506031e-04   9.3457548e-05   1.2953423e-04   5.5663596e-05   3.9034336e-05   5.2449374e-05   2.3503720e-05   8.2480767e-05   7.8592187e-05   7.8079624e-05   1.1623697e-05  -2.2948032e-05   4.4104738e-05  -1.1274863e-04  -7.2819252e-05  -8.5634373e-05  -1.4225777e-04  -1.0172949e-04  -6.1703289e-06  -2.1081077e-04  -9.7459266e-05  -2.7157245e-05  -4.8325634e-05   5.3269974e-05   5.2558198e-05  -1.1246722e-04  -3.7874347e-04  -1.8924340e-05  -1.9017618e-04   1.8007279e-05   2.2420618e-05  -4.3751341e-06   1.7205813e-05   4.3251774e-05  -2.4856775e-05  -1.4787119e-05  -2.5872400e-05  -5.7080851e-05  -2.5855376e-05  -3.2318438e-05  -3.7316602e-05  -3.0656193e-05  -1.1613806e-04  -1.6024296e-04   3.7303877e-05   3.8510351e-05  -2.0651174e-05   8.8053866e-06  -5.2499264e-05  -2.8688540e-04  -1.1782843e-04  -9.2437016e-05  -7.2127713e-05  -1.0904562e-04  -5.8926003e-05  -4.3006316e-05  -6.0681795e-05  -3.8740173e-05  -6.0338690e-05  -8.4554882e-05  -1.0284782e-04  -1.2412411e-04  -1.1603444e-04  -1.4841240e-05  -9.7760583e-05  -2.5652243e-05  -1.0525441e-04  -4.5595393e-05  -7.8159583e-05  -1.1539799e-04  -1.2998714e-04  -1.2497272e-04  -6.8292208e-05  -6.4434759e-05  -1.0112783e-04  -5.7097444e-05  -1.3203595e-04  -1.2237825e-04  -8.2238270e-05  -7.9607682e-05  -5.5919198e-05  -4.8798474e-05  -1.4140042e-04  -6.7220422e-05  -1.0312174e-04  -1.2287839e-04  -7.6898795e-05   1.9466925e-05  -3.2818325e-06   1.5335136e-04  -6.6330131e-05   1.0489185e-04   8.7369044e-06  -8.7755248e-05   9.5054210e-05  -4.0179656e-05   1.7966546e-04   1.0802365e-04   2.1614539e-04   1.9818830e-04   2.2386966e-04   2.4591901e-04   1.1520141e-04   5.9644330e-05   1.2717253e-04   1.1675495e-04  -6.9239636e-05   1.5697015e-04   1.3671059e-04   1.4587254e-04   1.7547878e-06   5.8656278e-05   7.1439097e-05  -1.2136089e-05   1.3431675e-04   3.4762937e-05   1.7873900e-04   1.0390915e-04   2.4441367e-05  -1.1000091e-04   2.3250822e-04  -1.0060160e-04   2.1112373e-04   2.3174005e-04   1.0225583e-04   4.9590412e-06   5.4133827e-05
  -1.0050960e-04  -6.1020843e-05  -1.1648684e-04  -2.4798570e-04  -9.8442613e-05  -6.8285461e-05  -6.6447438e-05  -9.7761540e-05  -1.2217257e-04  -1.1555587e-04  -1.6778780e-04  -1.3825943e-04  -7.3114216e-05  -1.0759588e-04  -5.3110192e-05  -1.5244367e-04  -1.2799420e-04  -1.1956733e-04  -9.2616622e-05  -1.2538450e-04  -1.3329515e-04  -1.0895339e-04  -8.3742496e-05  -1.6084879e-04  -1.0617131e-04  -1.4441520e-04  -1.2704568e-04  -1.5193747e-04  -1.2552029e-04  -7.6570389e-05  -3.4276418e-05  -1.0079757e-04  -4.6739461e-05  -1.0413145e-04  -1.4039945e-04  -9.3140512e-05  -5.6574423e-05  -4.3331724e-05  -8.3116021e-05  -2.0601469e-04  -1.5092042e-04  -3.1085380e-04  -3.2421601e-04  -5.5863183e-05  -1.3327761e-05   9.5336022e-05   1.6260144e-05  -6.5707907e-06  -7.8967010e-05   2.1831859e-05   1.0961968e-04   6.9222305e-05  -1.0063845e-04  -1.8690135e-04  -7.4944402e-05  -1.1782032e-04  -2.9713080e-05  -8.7998219e-05  -9.3835803e-05  -3.0667903e-04  -7.3833928e-05  -2.5950135e-04  -2.6259675e-04  -5.4389552e-05  -1.4451036e-04  -5.9711659e-05   7.4186844e-05   8.7361289e-05  -1.8129190e-05  -1.3758451e-04  -2.5195255e-04   9.3147134e-05   2.5890660e-05   1.0783353e-04   3.3679909e-05   2.7537405e-05  -1.3008656e-05   7.0753808e-05  -5.7758783e-05  -1.8882049e-06  -1.7777960e-05  -1.0805250e-04  -2.4663026e-04  -3.0956351e-04  -6.0676647e-05  -6.8780259e-05  -1.1214246e-04  -2.8240327e-04  -1.1292544e-05  -1.2357835e-04  -1.3452683e-04   8.8999869e-05  -1.7436852e-04  -7.3349023e-05  -2.1508245e-04  -1.9162814e-04  -8.5599344e-05   2.2197526e-06  -2.4272702e-05   2.3013802e-04   1.2750921e-04  -7.4391644e-05   3.3992887e-05   1.9712353e-05   1.2233942e-04  -5.5444705e-05   9.8863336e-05  -1.2718422e-04   1.4064065e-05   4.6767824e-05   1.3829238e-04   1.5877694e-04   4.1569075e-04   1.2337560e-04  -5.1929929e-05  -1.7154926e-05  -2.2998781e-05  -5.1892478e-05  -1.6807606e-05  -9.0862655e-06  -5.8712231e-05  -6.2437415e-05  -3.1472121e-05   6.6967092e-06  -7.8544802e-06  -2.0135074e-05  -6.7332109e-05  -1.4309262e-04  -4.3879296e-05  -4.0308295e-05  -2.6009893e-06  -1.9342862e-05  -1.5719378e-05  -1.5842320e-05  -1.3693562e-05  -2.4048770e-05  -1.9250677e-05  -7.0391684e-05  -2.4948285e-05  -3.4821680e-05  -2.9403561e-05  -1.4416395e-05  -5.0749114e-05  -6.1719482e-05  -7.5144857e-05  -1.4954868e-05  -1.8718106e-05  -4.5531187e-07  -1.5732381e-05  -4.2393553e-05  -8.7892102e-05  -6.4271686e-05  -1.4956359e-04  -2.6802235e-05  -6.3116213e-05  -1.4497620e-04  -6.0890361e-05  -4.8033651e-06  -2.6004796e-05  -3.4864670e-05  -4.7986919e-05  -2.4058995e-05  -3.3940802e-05  -1.7696373e-09  -3.9816798e-05  -7.8360567e-05   1.1036418e-05   2.3895752e-05   1.2300945e-05  -1.8460403e-05  -1.5911225e-05  -1.9432700e-05  -3.8428137e-05  -9.9466245e-06  -7.8134382e-06  -7.9370040e-05  -2.5431493e-05  -2.0314690e-05  -3.0475471e-05  -2.2402307e-05  -3.2373527e-05  -4.6576441e-05  -6.6070910e-05  -6.0578592e-05   3.8885395e-05  -2.7563185e-05  -1.4565102e-05  -5.3528994e-05  -5.0537513e-05  -5.5270939e-05  -1.2532882e-05   2.2701808e-05   2.6572900e-05   4.1007253e-05  -3.8078826e-06   2.2028807e-07  -3.0526205e-05   6.0996893e-06   1.7364670e-05   3.5409492e-05   1.3034930e-05  -5.1432787e-06   3.2844451e-05  -1.9950673e-05  -3.3320244e-05   6.5773991e-05   1.8223450e-06  -2.7180721e-05  -3.7533300e-05  -2.0877569e-05  -5.0552203e-05  -1.6103205e-05  -2.3752400e-06   5.7152120e-06  -1.0697401e-05  -2.7824482e-05  -1.3452864e-05  -1.0313534e-05  -3.6370003e-06  -3.7514605e-06  -7.5257379e-05   5.1944919e-07  -5.8384332e-05  -2.2822942e-06   2.2846442e-05   6.9335864e-06  -1.3889345e-05   6.1832097e-07  -1.7921039e-04  -6.8713037e-05  -4.2607617e-05  -5.4762758e-05  -9.8149200e-05  -3.2163305e-05  -5.6928442e-05   9.1516289e-07  -1.5861499e-05  -3.9346354e-05  -1.1783351e-06  -8.4854232e-06  -4.7247977e-05  -9.8525732e-05  -3.2088349e-05  -7.8691664e-05  -1.7891416e-07  -8.2381285e-06  -3.0965634e-05  -5.3020983e-05  -4.1881500e-05  -2.2576373e-05  -2.3355660e-05   2.6420256e-05  -5.1888496e-05  -6.0316955e-06   3.0307954e-05  -2.5547350e-05  -4.5033237e-05  -6.7207542e-05  -3.9304757e-05  -2.2329955e-05   2.5526197e-05   3.8959532e-06  -1.3973815e-05  -3.1059541e-05   3.2751956e-05  -1.7190179e-05   6.7738597e-05   1.0744396e-04   1.1618297e-04   1.9970505e-04   7.9183873e-05   6.5147878e-05   8.4244953e-05   9.9177453e-05   1.1823423e-04   1.1564317e-04   1.2943141e-04   1.5168399e-04   9.5157980e-05   7.6134058e-05   2.8601682e-05   1.2516067e-04   1.7332676e-04   1.2020275e-04   7.8001135e-05   1.4168137e-04   3.4804131e-05   1.0792168e-04   6.2563276e-05   9.9992767e-05   8.6509449e-05   1.1517988e-04   9.9933656e-05   1.3987714e-04   6.5154894e-05   4.2371473e-05   5.6993149e-05   4.2636417e-05   8.4829844e-05   8.2847818e-05   8.7786673e-05   1.6379793e-05  -2.0950574e-05   4.8155217e-05  -1.0454090e-04  -7.4398175e-05  -8.3138770e-05  -1.4116645e-04  -9.4536210e-05  -5.1906166e-07  -2.1587450e-04  -8.8986486e-05  -2.2221271e-05  -3.8856112e-05   6.6332380e-05   6.6058710e-05  -1.1132990e-04  -3.8046030e-04  -1.4284229e-05  -1.9205644e-04   2.5448780e-05   3.2427641e-05   8.9515899e-06   3.1834124e-05   5.1805361e-05  -1.2192782e-05  -6.1094499e-06  -1.6380666e-05  -4.8123627e-05  -1.3279163e-05  -2.8116270e-05  -2.8815719e-05  -2.5734623e-05  -1.2371830e-04  -1.6426211e-04   4.4331461e-05   4.3798940e-05  -1.5885667e-05   1.3066930e-05  -5.3526415e-05  -2.9041748e-04  -1.2269845e-04  -9.6589998e-05  -6.9850680e-05  -1.0793547e-04  -4.1077540e-05  -4.0673396e-05  -5.8461608e-05  -3.8271670e-05  -6.1397430e-05  -7.9119875e-05  -1.0081087e-04  -1.1823228e-04  -1.1097894e-04  -1.0879551e-05  -9.8151846e-05  -2.7400131e-05  -1.0004050e-04  -3.5817623e-05  -7.0252168e-05  -1.0851881e-04  -1.2375094e-04  -1.1963159e-04  -6.7578934e-05  -6.1701437e-05  -9.8913358e-05  -5.6779345e-05  -1.2696778e-04  -1.1599329e-04  -7.4673721e-05  -7.4115222e-05  -5.4478351e-05  -4.5139456e-05  -1.4198546e-04  -6.7156320e-05  -9.8823955e-05  -1.1898236e-04  -7.5538898e-05   2.7581213e-05   8.6153164e-07   1.4194765e-04  -6.8193256e-05   1.1202689e-04  -6.2275521e-06  -8.6715324e-05   9.6457826e-05  -1.9992540e-05   1.8332426e-04   1.1008457e-04   2.0771010e-04   1.9370048e-04   2.2638030e-04   2.5030296e-04   1.3407406e-04   6.5001552e-05   1.1758260e-04   1.1053806e-04  -6.8545982e-05   1.5715594e-04   1.3988397e-04   1.5202300e-04   5.4710980e-07   5.7226885e-05   5.8963041e-05  -9.9217854e-06   1.2585771e-04   2.2110406e-05   1.6532118e-04   1.0260022e-04   3.1694500e-05  -1.0958415e-04   2.2356301e-04  -9.5144976e-05   2.0404510e-04   2.2242126e-04   9.6292135e-05   1.0266983e-05   5.7431487e-05
  -1.1353033e-04  -6.3019090e-05  -1.1967286e-04  -2.5621718e-04  -1.0421621e-04  -7.0589546e-05  -7.1804848e-05  -1.0002902e-04  -1.2519257e-04  -1.1721495e-04  -1.7179251e-04  -1.4130234e-04  -7.5986521e-05  -1.1725305e-04  -5.5463551e-05  -1.5356024e-04  -1.2706990e-04  -1.2593125e-04  -9.6138878e-05  -1.3019705e-04  -1.3956642e-04  -1.1188762e-04  -8.7861120e-05  -1.6791295e-04  -1.0987368e-04  -1.4992166e-04  -1.3082003e-04  -1.5442062e-04  -1.2930739e-04  -7.9056039e-05  -3.8601977e-05  -1.0731451e-04  -4.8278617e-05  -1.0537469e-04  -1.4207049e-04  -9.5339556e-05  -5.8433038e-05  -4.4519829e-05  -9.0235793e-05  -2.1128522e-04  -1.4135746e-04  -3.0412419e-04  -3.3214321e-04  -5.7651336e-05   4.7971300e-06   1.0602145e-04   2.8044677e-05  -4.5106821e-07  -7.8836311e-05   2.2593378e-05   1.2584883e-04   8.9227248e-05  -9.5654863e-05  -1.8631647e-04  -7.5924436e-05  -1.1256238e-04  -2.3574585e-05  -9.2707882e-05  -9.5479566e-05  -3.1193141e-04  -7.2724061e-05  -2.6357328e-04  -2.6209541e-04  -4.9424316e-05  -1.4648897e-04  -5.6873181e-05   8.8233782e-05   1.0980909e-04  -5.8282114e-06  -1.4458711e-04  -2.5313786e-04   1.0350080e-04   3.2095168e-05   1.1819687e-04   4.5745148e-05   4.0997575e-05  -2.3463930e-05   7.5794446e-05  -4.9176522e-05   3.3581960e-05  -3.0510959e-06  -8.5800841e-05  -2.6882386e-04  -2.8190145e-04  -5.0150588e-05  -4.2635342e-05  -8.9365936e-05  -2.5125155e-04   1.2249677e-05  -1.3444198e-04  -1.5679569e-04   9.9043528e-05  -1.6203581e-04  -5.3950141e-05  -1.9782835e-04  -1.7460338e-04  -7.4965321e-05  -1.1563899e-06   3.0849824e-06   2.7657977e-04   1.3456240e-04  -3.0067496e-05   6.3376565e-05   6.3132274e-05   1.2965738e-04  -2.4562340e-05   7.4622144e-05  -1.4450432e-04   6.6785603e-06   5.7429207e-05   1.4641393e-04   1.5833692e-04   4.5600188e-04   1.4783926e-04  -4.6851941e-05  -1.2238219e-05  -1.5914529e-05  -3.3294987e-05  -1.0084426e-05  -4.6581105e-06  -5.5527485e-05  -5.8096369e-05  -2.3498802e-05   1.4375524e-05   2.3746957e-06  -1.1743140e-05  -6.4570595e-05  -1.4117664e-04  -4.2293473e-05  -3.2077201e-05   5.6522881e-06  -1.0965344e-05  -1.0363743e-05  -8.7305161e-06  -5.2141276e-06  -1.7031673e-05  -1.4565294e-05  -5.9134592e-05  -1.9637898e-05  -2.6347131e-05  -2.1711063e-05  -5.2418267e-06  -4.4083166e-05  -5.9460455e-05  -7.1973296e-05  -1.0191879e-05  -1.3730120e-05   6.0830764e-06  -6.4037265e-06  -3.8579604e-05  -8.8409154e-05  -6.1701927e-05  -1.4880622e-04  -2.6039331e-05  -6.0382982e-05  -1.3513515e-04  -5.9862406e-05  -2.7594824e-06  -2.2670336e-05  -3.2489430e-05  -4.3541238e-05  -1.9847709e-05  -2.7722486e-05   5.6796860e-06  -4.0228033e-05  -7.5011248e-05   1.4258387e-05   3.1679625e-05   2.0677894e-05  -1.4021369e-05  -1.3586727e-05  -1.6201944e-05  -2.9305197e-05  -2.9354721e-06  -4.0934559e-06  -7.0881339e-05  -1.7248870e-05  -1.4224239e-05  -2.3386848e-05  -1.4049351e-05  -2.9854875e-05  -4.3763408e-05  -6.8882664e-05  -5.5148107e-05   4.2971533e-05  -2.0792088e-05  -1.0176511e-05  -6.6422384e-05  -6.0466216e-05  -5.6126378e-05  -4.9724479e-06   2.7216435e-05   3.1236325e-05   4.9712661e-05   3.2789491e-06   4.5428687e-06  -2.3170446e-05   1.3441876e-05   2.3704894e-05   4.1444980e-05   2.1215805e-05   3.7417015e-06   3.9215992e-05  -1.0695254e-05  -3.0251649e-05   7.3424714e-05   7.5407027e-06  -2.1676661e-05  -3.2669906e-05  -1.4238114e-05  -4.1821405e-05  -9.8415176e-06   2.7588686e-06   1.3525129e-05  -5.3349858e-06  -1.9277139e-05  -7.8030672e-06  -3.3282616e-06   2.1350892e-06   3.9917206e-06  -6.9712102e-05   6.4888292e-06  -5.8302966e-05   2.3463351e-06   2.8519730e-05   1.7863971e-05  -7.1121875e-06   3.5605270e-06  -1.7593815e-04  -6.9447141e-05  -3.9461607e-05  -4.1927897e-05  -9.4725146e-05  -3.1123628e-05  -5.4693038e-05   3.5275474e-06  -1.1394692e-05  -3.7661961e-05   2.6316414e-06  -7.1477099e-06  -4.3798726e-05  -8.6065526e-05  -2.4547193e-05  -6.6198770e-05   7.8860033e-07  -4.8763086e-06  -2.9871662e-05  -5.0368767e-05  -3.7259491e-05  -1.8301777e-05  -1.8920993e-05   3.9673910e-05  -4.8122645e-05   3.2757804e-06   3.4989408e-05  -1.9013186e-05  -3.6841057e-05  -5.9820869e-05  -3.4874129e-05  -1.9649086e-05   2.5576444e-05   1.1339872e-05  -5.1798344e-06  -2.1783447e-05   3.8954498e-05  -1.5123887e-05   8.1240615e-05   1.1286785e-04   1.2487026e-04   2.1699046e-04   8.5520167e-05   7.0136635e-05   8.1679001e-05   1.0302717e-04   1.2779346e-04   1.2493900e-04   1.4667038e-04   1.6493461e-04   9.7070825e-05   7.3924099e-05   2.1735241e-05   1.2193051e-04   1.8864825e-04   1.3516956e-04   8.8871847e-05   1.5214998e-04   4.8453693e-05   1.1184688e-04   6.7487357e-05   1.0573322e-04   9.2194464e-05   1.2466050e-04   1.0684846e-04   1.4977852e-04   7.4147968e-05   4.4833430e-05   6.1593489e-05   6.1357198e-05   8.7755865e-05   8.6162487e-05   9.7021349e-05   1.9889090e-05  -1.9280735e-05   5.1959158e-05  -9.4075595e-05  -7.4587401e-05  -7.8745363e-05  -1.3734712e-04  -8.5621850e-05   5.5257930e-06  -2.1944430e-04  -8.0281399e-05  -1.6242624e-05  -2.7665293e-05   7.9966677e-05   7.9150559e-05  -1.0940340e-04  -3.8279373e-04  -9.0407057e-06  -1.9277070e-04   3.3087582e-05   4.3496719e-05   2.2512456e-05   4.6362777e-05   6.0491261e-05   1.4276419e-06   3.2932683e-06  -6.3508178e-06  -3.7621832e-05  -1.0586747e-07  -2.3359626e-05  -1.9705109e-05  -2.0533090e-05  -1.3118152e-04  -1.6614251e-04   5.0991428e-05   4.9331837e-05  -1.1577554e-05   1.6301111e-05  -5.5585193e-05  -2.9344961e-04  -1.2704515e-04  -9.7146248e-05  -6.6282544e-05  -1.0498397e-04  -2.0833057e-05  -3.6532356e-05  -5.4785157e-05  -3.6123460e-05  -6.0571715e-05  -7.2075463e-05  -9.7473115e-05  -1.1081008e-04  -1.0394128e-04  -5.9195091e-06  -9.4787794e-05  -2.7899453e-05  -9.2433054e-05  -2.5211585e-05  -6.1299933e-05  -1.0055952e-04  -1.1564191e-04  -1.1266042e-04  -6.5173277e-05  -5.8002512e-05  -9.4891587e-05  -5.5134854e-05  -1.1996442e-04  -1.0788301e-04  -6.5605661e-05  -6.7270854e-05  -5.1745415e-05  -4.0531164e-05  -1.3907049e-04  -6.5859587e-05  -9.3057685e-05  -1.1353367e-04  -7.4644361e-05   3.6227393e-05   5.9271324e-06   1.2748552e-04  -7.1245542e-05   1.1697577e-04  -2.2031724e-05  -8.7154319e-05   9.4993748e-05   7.0165091e-07   1.8559610e-04   1.1019707e-04   1.9668812e-04   1.8521901e-04   2.2411870e-04   2.5216439e-04   1.5040226e-04   6.9484204e-05   1.0655763e-04   1.0358563e-04  -7.0303716e-05   1.5432088e-04   1.3913658e-04   1.5543314e-04   1.7294800e-09   5.3336251e-05   4.5387140e-05  -8.0884260e-06   1.1339877e-04   6.4641290e-06   1.4823954e-04   9.9052637e-05   3.9667007e-05  -1.0702008e-04   2.1152123e-04  -8.9767483e-05   1.9440986e-04   2.0909236e-04   8.8749606e-05   1.2211730e-05   6.0272241e-05
  -1.2564274e-04  -6.4605414e-05  -1.2168997e-04  -2.6211085e-04  -1.0918366e-04  -7.2126144e-05  -7.6308625e-05  -1.0098623e-04  -1.2695138e-04  -1.1778254e-04  -1.7408747e-04  -1.4298398e-04  -7.8070176e-05  -1.2476542e-04  -5.6932462e-05  -1.5256843e-04  -1.2482131e-04  -1.3098121e-04  -9.8868626e-05  -1.3359220e-04  -1.4438513e-04  -1.1385472e-04  -9.1086728e-05  -1.7365621e-04  -1.1267524e-04  -1.5396967e-04  -1.3350733e-04  -1.5549216e-04  -1.3194552e-04  -8.0961040e-05  -4.2683688e-05  -1.1254696e-04  -4.9412787e-05  -1.0566683e-04  -1.4245167e-04  -9.7022151e-05  -6.0120249e-05  -4.5477158e-05  -9.8446678e-05  -2.1536157e-04  -1.3085347e-04  -2.9546395e-04  -3.3637637e-04  -5.9539677e-05   2.2197144e-05   1.1507400e-04   3.8789433e-05   4.6943544e-06  -7.8769276e-05   2.1354482e-05   1.4029954e-04   1.0899729e-04  -8.9229745e-05  -1.8456820e-04  -7.6928170e-05  -1.0703226e-04  -1.8023824e-05  -9.7375982e-05  -9.7624991e-05  -3.1306153e-04  -7.1190065e-05  -2.6481897e-04  -2.5801494e-04  -4.4908032e-05  -1.4865694e-04  -5.4599802e-05   1.0054308e-04   1.3228117e-04   6.7579602e-06  -1.5131525e-04  -2.5166528e-04   1.1221419e-04   3.7099453e-05   1.2715254e-04   5.8348157e-05   5.4057423e-05  -3.1585994e-05   7.9218017e-05  -3.9896365e-05   7.3684743e-05   1.0047313e-05  -6.3659917e-05  -2.9971707e-04  -2.3179639e-04  -4.2242688e-05  -1.2830502e-05  -5.9351660e-05  -2.1726805e-04   3.5897547e-05  -1.4974511e-04  -1.8568625e-04   9.9751260e-05  -1.4901051e-04  -3.3297735e-05  -1.7751002e-04  -1.5739891e-04  -6.4325681e-05  -5.3039586e-06   3.0816487e-05   3.2589127e-04   1.4004185e-04   1.8472979e-05   9.5297399e-05   1.1245718e-04   1.3393577e-04   1.4186460e-05   3.7096451e-05  -1.6078827e-04  -1.0615431e-05   7.5823875e-05   1.5825029e-04   1.4744319e-04   4.8787163e-04   1.7453829e-04  -3.9270379e-05  -6.8955596e-06  -8.2154962e-06  -1.3931223e-05  -2.6050755e-06   3.7835012e-07  -5.1184385e-05  -5.2953556e-05  -1.4942019e-05   2.2370921e-05   1.3427925e-05  -2.2822878e-06  -6.1139393e-05  -1.3742006e-04  -4.0263841e-05  -2.3560577e-05   1.4037425e-05  -2.2538924e-06  -4.2684773e-06  -8.1963293e-07   3.9816843e-06  -9.6008237e-06  -9.4950111e-06  -4.7257259e-05  -1.4103982e-05  -1.7362940e-05  -1.3632575e-05   3.9539092e-06  -3.7054071e-05  -5.6945531e-05  -6.8406690e-05  -4.7376919e-06  -8.0875799e-06   1.2413080e-05   2.7546753e-06  -3.5212068e-05  -8.8649843e-05  -5.8803636e-05  -1.4656779e-04  -2.4963042e-05  -5.7191025e-05  -1.2491959e-04  -5.8171790e-05  -6.5558194e-07  -1.9029085e-05  -3.0511769e-05  -3.9289196e-05  -1.5870984e-05  -2.1564064e-05   1.1301671e-05  -4.0650562e-05  -7.1173206e-05   1.7515770e-05   3.8931942e-05   2.8274009e-05  -9.4548548e-06  -1.1398774e-05  -1.2612843e-05  -1.9804451e-05   4.2389159e-06  -3.6573878e-07  -6.1815425e-05  -8.5785240e-06  -7.9761629e-06  -1.5855722e-05  -5.6554332e-06  -2.7538182e-05  -4.1434554e-05  -7.1280228e-05  -4.8818975e-05   4.8033856e-05  -1.4489773e-05  -6.5207505e-06  -7.9639147e-05  -6.9618203e-05  -5.7091971e-05   3.2062982e-06   3.1524096e-05   3.5679384e-05   5.6814896e-05   1.0436084e-05   8.8636970e-06  -1.5738243e-05   2.0171703e-05   2.9272560e-05   4.6544227e-05   2.8698825e-05   1.1985817e-05   4.4940433e-05  -1.3397451e-06  -2.7419284e-05   7.9392618e-05   1.2142967e-05  -1.6299745e-05  -2.7898775e-05  -7.6180861e-06  -3.2801532e-05  -3.5295477e-06   7.8817877e-06   2.0889403e-05   1.8374110e-07  -1.0839073e-05  -2.6742316e-06   3.1307137e-06   7.4687403e-06   1.1546315e-05  -6.3657919e-05   1.1746462e-05  -5.7569781e-05   6.1790071e-06   3.3108848e-05   2.7838050e-05  -1.3899988e-07   6.5235096e-06  -1.6999792e-04  -6.8517748e-05  -3.4992461e-05  -2.6998087e-05  -8.9628978e-05  -2.9087551e-05  -5.0241859e-05   6.0727879e-06  -5.8663213e-06  -3.4699806e-05   7.1838524e-06  -4.6684279e-06  -3.9011790e-05  -7.2210442e-05  -1.5407260e-05  -5.1087899e-05   3.2428562e-06  -1.2040066e-06  -2.7464274e-05  -4.6236140e-05  -3.0783396e-05  -1.2510445e-05  -1.3698406e-05   5.4756084e-05  -4.2902604e-05   1.3411936e-05   4.0711991e-05  -1.1330872e-05  -2.7344483e-05  -5.1923926e-05  -2.8740968e-05  -1.5301686e-05   2.6912730e-05   1.9918073e-05   4.9625314e-06  -1.1692025e-05   4.5313132e-05  -1.1842255e-05   9.5393098e-05   1.1843215e-04   1.3351936e-04   2.3438859e-04   9.1743477e-05   7.4793619e-05   7.7983731e-05   1.0538613e-04   1.3635024e-04   1.3397169e-04   1.6337262e-04   1.7726586e-04   9.8507880e-05   7.1454506e-05   1.4887763e-05   1.1934073e-04   2.0346779e-04   1.4943534e-04   9.9649833e-05   1.6206196e-04   6.2047651e-05   1.1529016e-04   7.1848246e-05   1.1103639e-04   9.7934804e-05   1.3337136e-04   1.1419554e-04   1.5907706e-04   8.2393250e-05   4.6343779e-05   6.6055983e-05   7.8819941e-05   9.1134399e-05   8.8502012e-05   1.0547685e-04   2.1988472e-05  -1.8013994e-05   5.5336842e-05  -8.1551318e-05  -7.3336795e-05  -7.2465323e-05  -1.3093048e-04  -7.5236932e-05   1.1844364e-05  -2.2138610e-04  -7.1959581e-05  -9.3604960e-06  -1.5087809e-05   9.3741285e-05   9.1440837e-05  -1.0688611e-04  -3.8599909e-04  -3.3837296e-06  -1.9261864e-04   4.0657270e-05   5.5312088e-05   3.5758490e-05   6.0365887e-05   6.9000042e-05   1.5612889e-05   1.3111751e-05   3.8332228e-06  -2.5871219e-05   1.3275870e-05  -1.8379515e-05  -1.0256530e-05  -1.5215989e-05  -1.3853531e-04  -1.6592011e-04   5.7305453e-05   5.5115439e-05  -8.0009429e-06   1.8304777e-05  -5.8889656e-05  -2.9639381e-04  -1.3086007e-04  -9.3994959e-05  -6.1641065e-05  -1.0044217e-04   1.0302109e-06  -3.0702496e-05  -4.9810122e-05  -3.2519601e-05  -5.8006098e-05  -6.3797499e-05  -9.3093013e-05  -1.0216863e-04  -9.5259703e-05  -3.4162599e-07  -8.8054544e-05  -2.7159409e-05  -8.2751518e-05  -1.4093141e-05  -5.1700886e-05  -9.1886742e-05  -1.0600656e-04  -1.0436644e-04  -6.1202261e-05  -5.3534347e-05  -8.9355908e-05  -5.2256154e-05  -1.1142277e-04  -9.8433940e-05  -5.5470479e-05  -5.9453707e-05  -4.8122969e-05  -3.5355182e-05  -1.3247363e-04  -6.3455003e-05  -8.6244289e-05  -1.0679906e-04  -7.4290298e-05   4.5044667e-05   1.1524042e-05   1.1028616e-04  -7.5581624e-05   1.1955880e-04  -3.8249941e-05  -8.9408942e-05   9.0608725e-05   2.1057408e-05   1.8638305e-04   1.0842020e-04   1.8355403e-04   1.7289447e-04   2.1701474e-04   2.5179053e-04   1.6376381e-04   7.3076650e-05   9.4495485e-05   9.5973687e-05  -7.4825942e-05   1.4850152e-04   1.3407731e-04   1.5546116e-04  -4.1220498e-08   4.6902876e-05   3.0912355e-05  -6.9627881e-06   9.6949764e-05  -1.1898016e-05   1.2800719e-04   9.3284423e-05   4.7995897e-05  -1.0286772e-04   1.9688907e-04  -8.5000639e-05   1.8234306e-04   1.9214977e-04   7.9901337e-05   1.0618383e-05   6.2499978e-05
  -1.3659633e-04  -6.5781554e-05  -1.2255999e-04  -2.6562597e-04  -1.1328503e-04  -7.2896586e-05  -7.9861383e-05  -1.0064628e-04  -1.2742835e-04  -1.1727742e-04  -1.7466359e-04  -1.4327962e-04  -7.9321826e-05  -1.2997820e-04  -5.7496053e-05  -1.4952640e-04  -1.2132876e-04  -1.3459563e-04  -1.0080427e-04  -1.3555398e-04  -1.4771097e-04  -1.1483411e-04  -9.3358064e-05  -1.7799853e-04  -1.1453175e-04  -1.5650554e-04  -1.3511717e-04  -1.5518539e-04  -1.3342704e-04  -8.2220690e-05  -4.6487630e-05  -1.1637957e-04  -5.0140713e-05  -1.0502289e-04  -1.4161267e-04  -9.8292165e-05  -6.1698844e-05  -4.6201521e-05  -1.0781561e-04  -2.1835171e-04  -1.2016554e-04  -2.8561657e-04  -3.3724423e-04  -6.1672113e-05   3.8043716e-05   1.2235335e-04   4.8016769e-05   8.5296472e-06  -7.8975452e-05   1.7996863e-05   1.5267435e-04   1.2793682e-04  -8.1624412e-05  -1.8197014e-04  -7.7942421e-05  -1.0173494e-04  -1.3417845e-05  -1.0219081e-04  -1.0029288e-04  -3.1027289e-04  -6.9462463e-05  -2.6340468e-04  -2.5061866e-04  -4.1154118e-05  -1.5120742e-04  -5.3034577e-05   1.1066305e-04   1.5430453e-04   1.9252756e-05  -1.5765246e-04  -2.4803727e-04   1.1909321e-04   4.0730212e-05   1.3462554e-04   7.1300697e-05   6.6415913e-05  -3.5991121e-05   8.1148328e-05  -2.9596301e-05   1.1824678e-04   2.1091571e-05  -4.2413640e-05  -3.3893267e-04  -1.5884018e-04  -3.7121592e-05   2.0002249e-05  -2.1773680e-05  -1.8115532e-04   5.8928135e-05  -1.6851134e-04  -2.2048296e-04   9.0775581e-05  -1.3548589e-04  -1.1335636e-05  -1.5456854e-04  -1.3991089e-04  -5.2880374e-05  -9.7162466e-06   5.8390242e-05   3.7786218e-04   1.4419785e-04   7.0581277e-05   1.2956927e-04   1.6687834e-04   1.3581039e-04   5.9543963e-05  -1.2594273e-05  -1.7402933e-04  -3.7660078e-05   1.0280650e-04   1.7507153e-04   1.2699229e-04   5.0970549e-04   2.0291623e-04  -2.9399376e-05  -1.3469114e-06  -1.6369614e-07   5.5202551e-06   5.4084895e-06   5.8344898e-06  -4.5911721e-05  -4.7296868e-05  -6.1644961e-06   3.0402333e-05   2.4927124e-05   7.8426094e-06  -5.7226316e-05  -1.3204999e-04  -3.7916776e-05  -1.5109290e-05   2.2187171e-05   6.4578151e-06   2.3192080e-06   7.5864862e-06   1.3577645e-05  -2.0186554e-06  -4.2083796e-06  -3.5180122e-05  -8.5283559e-06  -8.2154178e-06  -5.4644716e-06   1.2862040e-05  -2.9978430e-05  -5.4390373e-05  -6.4664668e-05   1.1414340e-06  -2.0063219e-06   1.8272204e-05   1.1388111e-05  -3.2555455e-05  -8.8792366e-05  -5.5790504e-05  -1.4300849e-04  -2.3633334e-05  -5.3667439e-05  -1.1474337e-04  -5.5882548e-05   1.4684187e-06  -1.5239354e-05  -2.9043904e-05  -3.5413675e-05  -1.2252824e-05  -1.5617391e-05   1.6740873e-05  -4.1068523e-05  -6.7039538e-05   2.0689212e-05   4.5397584e-05   3.4837750e-05  -4.8637747e-06  -9.3645375e-06  -8.7472066e-06  -1.0267039e-05   1.1349375e-05   3.2800066e-06  -5.2494152e-05   2.4989063e-07  -1.7725808e-06  -8.0798833e-06   2.5109364e-06  -2.5509536e-05  -3.9909818e-05  -7.3246761e-05  -4.1965062e-05   5.3915379e-05  -8.8985534e-06  -3.6624573e-06  -9.2679619e-05  -7.7728741e-05  -5.8223384e-05   1.1704452e-05   3.5472440e-05   3.9785163e-05   6.1968211e-05   1.7433475e-05   1.2992850e-05  -8.5753082e-06   2.6036674e-05   3.3827315e-05   5.0497245e-05   3.5137112e-05   1.9174579e-05   4.9805542e-05   7.7703781e-06  -2.4949757e-05   8.3537853e-05   1.5342555e-05  -1.1356711e-05  -2.3472799e-05  -1.3091891e-06  -2.3904058e-05   2.5514513e-06   1.2762892e-05   2.7509347e-05   5.6313237e-06  -2.9175037e-06   1.6057322e-06   8.7578382e-06   1.2168613e-05   1.8677619e-05  -5.7359449e-05   1.6151302e-05  -5.6338694e-05   9.0410758e-06   3.6479530e-05   3.6664163e-05   6.9028320e-06   9.4312846e-06  -1.6145794e-04  -6.5975671e-05  -2.9236372e-05  -1.0392125e-05  -8.3002063e-05  -2.6067584e-05  -4.3703434e-05   8.6755183e-06   6.9078292e-07  -3.0492934e-05   1.2464466e-05  -1.0360183e-06  -3.3108266e-05  -5.7460557e-05  -4.9795189e-06  -3.3956462e-05   7.1053990e-06   2.7623877e-06  -2.3662576e-05  -4.0620146e-05  -2.2507019e-05  -5.3392316e-06  -7.7946657e-06   7.1382810e-05  -3.6431671e-05   2.4192138e-05   4.7398635e-05  -2.7078094e-06  -1.6795767e-05  -4.3833435e-05  -2.1163798e-05  -9.1785518e-06   2.9341744e-05   2.9397041e-05   1.6171587e-05  -9.3573572e-07   5.1604721e-05  -7.5072182e-06   1.0994020e-04   1.2402771e-04   1.4190185e-04   2.5152658e-04   9.7625969e-05   7.8994129e-05   7.3361598e-05   1.0635824e-04   1.4372926e-04   1.4248769e-04   1.7904079e-04   1.8830191e-04   9.9511347e-05   6.9071328e-05   8.3745902e-06   1.1768681e-04   2.1741358e-04   1.6266067e-04   1.0998272e-04   1.7139688e-04   7.4916929e-05   1.1809258e-04   7.5580299e-05   1.1587415e-04   1.0359038e-04   1.4120058e-04   1.2191409e-04   1.6760441e-04   8.9675338e-05   4.6891877e-05   7.0176888e-05   9.4254583e-05   9.4768830e-05   8.9855667e-05   1.1284953e-04   2.2609242e-05  -1.7198002e-05   5.8114653e-05  -6.7263611e-05  -7.0670327e-05  -6.4406523e-05  -1.2215747e-04  -6.3702737e-05   1.8299257e-05  -2.2163394e-04  -6.4624965e-05  -1.7673394e-06  -1.5420054e-06   1.0719594e-04   1.0256830e-04  -1.0403031e-04  -3.9021367e-04   2.4583524e-06  -1.9198151e-04   4.7889265e-05   6.7521378e-05   4.8149403e-05   7.3459268e-05   7.7027726e-05   2.9910389e-05   2.2994894e-05   1.3737203e-05  -1.3261628e-05   2.6449247e-05  -1.3538304e-05  -7.9127315e-07  -9.9924118e-06  -1.4582032e-04  -1.6375500e-04   6.3309306e-05   6.1160992e-05  -5.4151021e-06   1.8907893e-05  -6.3627352e-05  -2.9965521e-04  -1.3417606e-04  -8.7224881e-05  -5.6194213e-05  -9.4649922e-05   2.3647013e-05  -2.3405098e-05  -4.3754817e-05  -2.7768625e-05  -5.3958552e-05  -5.4735487e-05  -8.7962285e-05  -9.2646729e-05  -8.5328419e-05   5.4367111e-06  -7.8543862e-05  -2.5252584e-05  -7.1400562e-05  -2.7791210e-06  -4.1865346e-05  -8.2859401e-05  -9.5240749e-05  -9.5096273e-05  -5.5869695e-05  -4.8520778e-05  -8.2662450e-05  -4.8293933e-05  -1.0180316e-04  -8.8070006e-05  -4.4757155e-05  -5.1052814e-05  -4.4097170e-05  -3.0002551e-05  -1.2222442e-04  -6.0102658e-05  -7.8861479e-05  -9.9076626e-05  -7.4439650e-05   5.3699327e-05   1.7215121e-05   9.0715150e-05  -8.1220960e-05   1.1971581e-04  -5.4462122e-05  -9.3705821e-05   8.3382906e-05   4.0222383e-05   1.8555899e-04   1.0487627e-04   1.6880812e-04   1.5699892e-04   2.0518325e-04   2.4953046e-04   1.7388091e-04   7.5807579e-05   8.1792763e-05   8.7735809e-05  -8.2275176e-05   1.3980845e-04   1.2450192e-04   1.5151744e-04   1.8225690e-07   3.7956484e-05   1.5696417e-05  -6.8364338e-06   7.6655232e-05  -3.2598694e-05   1.0524646e-04   8.5405405e-05   5.6288208e-05  -9.7789253e-05   1.8015295e-04  -8.1341422e-05   1.6798775e-04   1.7210425e-04   7.0037642e-05   5.5379382e-06   6.3976552e-05
  -1.4615499e-04  -6.6544563e-05  -1.2231885e-04  -2.6675726e-04  -1.1646393e-04  -7.2913655e-05  -8.2393071e-05  -9.9063327e-05  -1.2662424e-04  -1.1572737e-04  -1.7353692e-04  -1.4218054e-04  -7.9720738e-05  -1.3283757e-04  -5.7169658e-05  -1.4456643e-04  -1.1668924e-04  -1.3668206e-04  -1.0194492e-04  -1.3609491e-04  -1.4952645e-04  -1.1480802e-04  -9.4630673e-05  -1.8086551e-04  -1.1540197e-04  -1.5749892e-04  -1.3566325e-04  -1.5354608e-04  -1.3375806e-04  -8.2780910e-05  -4.9972573e-05  -1.1874164e-04  -5.0457950e-05  -1.0347013e-04  -1.3963551e-04  -9.9227232e-05  -6.3202471e-05  -4.6684011e-05  -1.1832981e-04  -2.2037108e-04  -1.0998486e-04  -2.7528803e-04  -3.3516125e-04  -6.4169456e-05   5.1645734e-05   1.2784306e-04   5.5349413e-05   1.0781054e-05  -7.9640424e-05   1.2503475e-05   1.6279695e-04   1.4551928e-04  -7.3116431e-05  -1.7881120e-04  -7.8930639e-05  -9.7129984e-05  -1.0060622e-05  -1.0733323e-04  -1.0348778e-04  -3.0389514e-04  -6.7765255e-05  -2.5956389e-04  -2.4024734e-04  -3.8409985e-05  -1.5426632e-04  -5.2254142e-05   1.1828920e-04   1.7547197e-04   3.1313931e-05  -1.6346743e-04  -2.4283789e-04   1.2404270e-04   4.2907590e-05   1.4064937e-04   8.4427827e-05   7.7853576e-05  -3.5446981e-05   8.1815883e-05  -1.7897667e-05   1.6699504e-04   2.9849445e-05  -2.2743074e-05  -3.8542868e-04  -6.3901641e-05  -3.4706633e-05   5.5076861e-05   2.3399918e-05  -1.4360703e-04   8.0722161e-05  -1.8934428e-04  -2.5996900e-04   7.2484842e-05  -1.2155893e-04   1.2021651e-05  -1.2949321e-04  -1.2191342e-04  -3.9700741e-05  -1.3838921e-05   8.5395352e-05   4.3220538e-04   1.4739673e-04   1.2554066e-04   1.6591079e-04   2.2529025e-04   1.3621041e-04   1.0975912e-04  -7.2432817e-05  -1.8232746e-04  -7.3665067e-05   1.3880587e-04   1.9799494e-04   9.8767875e-05   5.2045898e-04   2.3233249e-04  -1.7577027e-05   4.1728407e-06   7.9502181e-06   2.4377105e-05   1.3704544e-05   1.1490797e-05  -3.9988326e-05  -4.1439554e-05   2.4503863e-06   3.8173361e-05   3.6455039e-05   1.8174343e-05  -5.3035352e-05  -1.2535991e-04  -3.5393022e-05  -7.0634769e-06   2.9731938e-05   1.4826088e-05   9.1134091e-06   1.6143810e-05   2.3234882e-05   5.4435858e-06   1.1127820e-06  -2.3323877e-05  -3.0961743e-06   7.3517480e-07   2.4839167e-06   2.1179924e-05  -2.3173886e-05  -5.2017196e-05  -6.0967738e-05   7.1681275e-06   4.2744870e-06   2.3413969e-05   1.9165276e-05  -3.0834675e-05  -8.9023876e-05  -5.2880214e-05  -1.3833786e-04  -2.2124730e-05  -4.9957163e-05  -1.0497913e-04  -5.3089664e-05   3.5681279e-06  -1.1484623e-05  -2.8159903e-05  -3.2067375e-05  -9.0969179e-06  -1.0012280e-05   2.1876805e-05  -4.1455009e-05  -6.2796541e-05   2.3652420e-05   5.0845093e-05   4.0172660e-05  -3.5245716e-07  -7.4893128e-06  -4.7158550e-06  -1.0380689e-06   1.8164518e-05   6.7591695e-06  -4.3226564e-05   8.8956451e-06   4.1873136e-06  -2.6502376e-07   1.0202015e-05  -2.3836587e-05  -3.9461964e-05  -7.4793921e-05  -3.4992216e-05   6.0371148e-05  -4.2022568e-06  -1.6117248e-06  -1.0508801e-04  -8.4613939e-05  -5.9561534e-05   2.0212813e-05   3.8919318e-05   4.3434924e-05   6.4918686e-05   2.4042740e-05   1.6747181e-05  -1.9989179e-06   3.0834427e-05   3.7179472e-05   5.3148167e-05   4.0228652e-05   2.4956011e-05   5.3652340e-05   1.6317491e-05  -2.2941520e-05   8.5810680e-05   1.6928623e-05  -7.1369806e-06  -1.9622690e-05   4.4165058e-06  -1.5541038e-05   8.1189394e-06   1.7178083e-05   3.3110580e-05   1.0766654e-05   4.1035837e-06   4.7463927e-06   1.3289440e-05   1.6074905e-05   2.5180695e-05  -5.1074865e-05   1.9617384e-05  -5.4797115e-05   1.0816803e-05   3.8562363e-05   4.4210446e-05   1.3886738e-05   1.2218391e-05  -1.5049388e-04  -6.1954373e-05  -2.2305303e-05   7.3666235e-06  -7.5049440e-05  -2.2135741e-05  -3.5327161e-05   1.1436218e-05   8.1779496e-06  -2.5162111e-05   1.8402571e-05   3.6724072e-06  -2.6380053e-05  -4.2337436e-05   6.3516665e-06  -1.5529701e-05   1.2182992e-05   6.9991112e-06  -1.8475045e-05  -3.3607948e-05  -1.2604471e-05   2.9870439e-06  -1.3519252e-06   8.9157579e-05  -2.8990672e-05   3.5389633e-05   5.4904978e-05   6.5884091e-06  -5.5108745e-06  -3.5863360e-05  -1.2481132e-05  -1.2709210e-06   3.2599058e-05   3.9472309e-05   2.8096682e-05   1.0315836e-05   5.7623816e-05  -2.3646436e-06   1.2460567e-04   1.2951798e-04   1.4977220e-04   2.6798757e-04   1.0294213e-04   8.2619524e-05   6.8069364e-05   1.0612756e-04   1.4981474e-04   1.5022804e-04   1.9321040e-04   1.9770115e-04   1.0012826e-04   6.7099969e-05   2.4787584e-06   1.1715296e-04   2.3011730e-04   1.7456735e-04   1.1951827e-04   1.8014192e-04   8.6468372e-05   1.2009871e-04   7.8637476e-05   1.2023217e-04   1.0899167e-04   1.4806189e-04   1.2988964e-04   1.7519636e-04   9.5828194e-05   4.6530696e-05   7.3765467e-05   1.0701651e-04   9.8405862e-05   9.0239260e-05   1.1885721e-04   2.1789374e-05  -1.6858390e-05   6.0141642e-05  -5.1590340e-05  -6.6693143e-05  -5.4782668e-05  -1.1138778e-04  -5.1394813e-05   2.4741100e-05  -2.2019205e-04  -5.8836002e-05   6.2978778e-06   1.2485798e-05   1.1985868e-04   1.1221639e-04  -1.0109501e-04  -3.9546775e-04   8.2244242e-06  -1.9129861e-04   5.4530969e-05   7.9737712e-05   5.9193498e-05   8.5313390e-05   8.4292369e-05   4.3828851e-05   3.2574264e-05   2.2882779e-05  -2.6511702e-07   3.8982604e-05  -9.2012020e-06   8.3483255e-06  -5.0927693e-06  -1.5312343e-04  -1.5992214e-04   6.9029262e-05   6.7462388e-05  -4.0689708e-06   1.7975262e-05  -6.9948928e-05  -3.0361256e-04  -1.3706135e-04  -7.7110865e-05  -5.0245929e-05  -8.8014704e-05   4.6126547e-05  -1.4946501e-05  -3.6883058e-05  -2.2241955e-05  -4.8774613e-05  -4.5383697e-05  -8.2382264e-05  -8.2602120e-05  -7.4579894e-05   1.0992863e-05  -6.7003978e-05  -2.2313665e-05  -5.8848422e-05   8.4193802e-06  -3.2187792e-05  -7.3810250e-05  -8.3766348e-05  -8.5217152e-05  -4.9447570e-05  -4.3191849e-05  -7.5200097e-05  -4.3454829e-05  -9.1598963e-05  -7.7225760e-05  -3.3975016e-05  -4.2454982e-05  -4.0201416e-05  -2.4843790e-05  -1.0857925e-04  -5.5988033e-05  -7.1411502e-05  -9.0676796e-05  -7.4945322e-05   6.1909445e-05   2.2561416e-05   6.9187745e-05  -8.8119267e-05   1.1750049e-04  -7.0267513e-05  -1.0015179e-04   7.3520395e-05   5.7389161e-05   1.8298339e-04   9.9753167e-05   1.5296204e-04   1.3790741e-04   1.8889940e-04   2.4578927e-04   1.8062970e-04   7.7736493e-05   6.8847808e-05   7.8868212e-05  -9.2650870e-05   1.2840995e-04   1.1041056e-04   1.4309654e-04   3.6920900e-07   2.6629484e-05  -1.4701876e-07  -7.9461392e-06   5.2792609e-05  -5.5175908e-05   8.0656827e-05   7.5594849e-05   6.4149455e-05  -9.2485283e-05   1.6173361e-04  -7.9234894e-05   1.5151929e-04   1.4956357e-04   5.9445478e-05  -2.7563406e-06   6.4593263e-05
  -1.5410433e-04  -6.6886189e-05  -1.2101306e-04  -2.6553397e-04  -1.1866821e-04  -7.2199837e-05  -8.3861214e-05  -9.6326920e-05  -1.2456438e-04  -1.1316527e-04  -1.7074965e-04  -1.3969771e-04  -7.9269967e-05  -1.3338695e-04  -5.6004207e-05  -1.3788913e-04  -1.1101392e-04  -1.3718156e-04  -1.0228959e-04  -1.3525439e-04  -1.4983915e-04  -1.1376273e-04  -9.4878361e-05  -1.8219156e-04  -1.1525218e-04  -1.5694215e-04  -1.3516104e-04  -1.5063105e-04  -1.3295782e-04  -8.2602730e-05  -5.3088311e-05  -1.1961041e-04  -5.0358747e-05  -1.0104755e-04  -1.3661035e-04  -9.9869165e-05  -6.4633372e-05  -4.6910761e-05  -1.2990341e-04  -2.2153064e-04  -1.0087849e-04  -2.6509730e-04  -3.3059006e-04  -6.7123824e-05   6.2473250e-05   1.3164850e-04   6.0528505e-05   1.1245040e-05  -8.0909222e-05   4.9494318e-06   1.7061053e-04   1.6130415e-04  -6.3980333e-05  -1.7533720e-04  -7.9848800e-05  -9.3612423e-05  -8.1913138e-06  -1.1296955e-04  -1.0721554e-04  -2.9436009e-04  -6.6299858e-05  -2.5357918e-04  -2.2729938e-04  -3.6851459e-05  -1.5788622e-04  -5.2266803e-05   1.2327876e-04   1.9546453e-04   4.2651043e-05  -1.6862291e-04  -2.3669019e-04   1.2706321e-04   4.3643603e-05   1.4535171e-04   9.7563313e-05   8.8241990e-05  -2.8989380e-05   8.1529239e-05  -4.3876474e-06   2.1953769e-04   3.6289537e-05  -5.1917911e-06  -4.3753081e-04   5.0882331e-05  -3.4657720e-05   9.1471259e-05   7.5859587e-05  -1.0529184e-04   1.0081955e-04  -2.1051453e-04  -3.0247771e-04   4.5964769e-05  -1.0723444e-04   3.6887949e-05  -1.0278816e-04  -1.0310929e-04  -2.3808994e-05  -1.7124519e-05   1.1155059e-04   4.8853587e-04   1.5009350e-04   1.8260182e-04   2.0394731e-04   2.8633007e-04   1.3631396e-04   1.6268264e-04  -1.3959974e-04  -1.8405223e-04  -1.1723936e-04   1.8377223e-04   2.2791026e-04   6.5352370e-05   5.1974256e-04   2.6211725e-04  -4.2469577e-06   9.4268839e-06   1.5820835e-05   4.1980591e-05   2.2012406e-05   1.7109931e-05  -3.3725760e-05  -3.5704118e-05   1.0518916e-05   4.5389709e-05   4.7573152e-05   2.8229558e-05  -4.8776704e-05  -1.1769626e-04  -3.2839504e-05   2.6148832e-07   3.6324303e-05   2.2515503e-05   1.5806430e-05   2.4486766e-05   3.2608395e-05   1.2519039e-05   6.2828331e-06  -1.2093334e-05   2.0131720e-06   9.1315193e-06   9.9031817e-06   2.8625101e-05  -1.6945803e-05  -5.0045795e-05  -5.7523657e-05   1.3073140e-05   1.0509219e-05   2.7619348e-05   2.5793652e-05  -3.0221574e-05  -8.9525686e-05  -5.0283061e-05  -1.3279981e-04  -2.0526419e-05  -4.6217422e-05  -9.5942569e-05  -4.9918134e-05   5.5939312e-06  -7.9618466e-06  -2.7894769e-05  -2.9370653e-05  -6.4843178e-06  -4.8541353e-06   2.6593646e-05  -4.1780049e-05  -5.8614984e-05   2.6270173e-05   5.5072330e-05   4.4142557e-05   3.9761949e-06  -5.7693898e-06  -6.5560174e-07   7.5465154e-06   2.4458280e-05   9.9947737e-06  -3.4293769e-05   1.7026136e-05   9.7167603e-06   7.3827538e-06   1.7203098e-05  -2.2570274e-05  -4.0294321e-05  -7.5958607e-05  -2.8310600e-05   6.7079783e-05  -5.1824926e-07  -3.2769264e-07  -1.1647594e-04  -9.0174926e-05  -6.1131587e-05   2.8427523e-05   4.1738655e-05   4.6507219e-05   6.5506920e-05   3.0042506e-05   1.9960584e-05   3.7188926e-06   3.4422863e-05   3.9193840e-05   5.4399306e-05   4.3730024e-05   2.9060433e-05   5.6376907e-05   2.4024424e-05  -2.1465305e-05   8.6244077e-05   1.6779633e-05  -3.8947486e-06  -1.6544166e-05   9.3186549e-06  -8.1062576e-06   1.2901256e-05   2.0922310e-05   3.7454206e-05   1.5343054e-05   9.8833491e-06   6.5091103e-06   1.6515084e-05   1.9068201e-05   3.0888652e-05  -4.5044096e-05   2.2109602e-05  -5.3159938e-05   1.1452230e-05   3.9352835e-05   5.0401788e-05   2.0687791e-05   1.4829748e-05  -1.3738453e-04  -5.6662996e-05  -1.4382231e-05   2.5688454e-05  -6.6034740e-05  -1.7420668e-05  -2.5478513e-05   1.4422172e-05   1.6424984e-05  -1.8910825e-05   2.4864336e-05   9.2939895e-06  -1.9175422e-05  -2.7359015e-05   1.8146976e-05   3.3741697e-06   1.8182667e-05   1.1476938e-05  -1.2003649e-05  -2.5379140e-05  -1.3681072e-06   1.2169826e-05   5.4554740e-06   1.0758694e-04  -2.0921591e-05   4.6740261e-05   6.3020871e-05   1.6243054e-05   6.1429760e-06  -2.8302816e-05  -3.0916482e-06   8.3188280e-06   3.6375972e-05   4.9786038e-05   4.0332072e-05   2.1876551e-05   6.3200402e-05   3.2761432e-06   1.3911399e-04   1.3476018e-04   1.5688515e-04   2.8333800e-04   1.0749080e-04   8.5560052e-05   6.2393383e-05   1.0494822e-04   1.5455340e-04   1.5695364e-04   2.0547450e-04   2.0518501e-04   1.0040161e-04   6.5821419e-05  -2.5654502e-06   1.1779805e-04   2.4123064e-04   1.8494019e-04   1.2792805e-04   1.8828581e-04   9.6221695e-05   1.2117183e-04   8.0995025e-05   1.2411061e-04   1.1396187e-04   1.5389909e-04   1.3796473e-04   1.8169907e-04   1.0074606e-04   4.5377044e-05   7.6658107e-05   1.1662457e-04   1.0175157e-04   8.9691516e-05   1.2326131e-04   1.9663626e-05  -1.6990467e-05   6.1300589e-05  -3.4992360e-05  -6.1577672e-05  -4.3909984e-05  -9.9069037e-05  -3.8742946e-05   3.1001331e-05  -2.1716723e-04  -5.5089080e-05   1.4541028e-05   2.6467285e-05   1.3126870e-04   1.2012966e-04  -9.8356943e-05  -4.0169274e-04   1.3632139e-05  -1.9103247e-04   6.0351865e-05   9.1577246e-05   6.8467387e-05   9.5675778e-05   9.0557053e-05   5.6853644e-05   4.1476616e-05   3.0778321e-05   1.2581993e-05   5.0442804e-05  -5.7150633e-06   1.6793688e-05  -7.7924779e-07  -1.6056297e-04  -1.5480803e-04   7.4471933e-05   7.3980377e-05  -4.1779155e-06   1.5409034e-05  -7.7959863e-05  -3.0859524e-04  -1.3961923e-04  -6.4096366e-05  -4.4110043e-05  -8.0981538e-05   6.7615778e-05  -5.7033457e-06  -2.9484403e-05  -1.6342553e-05  -4.2858419e-05  -3.6244343e-05  -7.6641236e-05  -7.2384359e-05  -6.3450660e-05   1.5934641e-05  -5.4289932e-05  -1.8528916e-05  -4.5591709e-05   1.9216591e-05  -2.3023450e-05  -6.5027143e-05  -7.2006783e-05  -7.5092724e-05  -4.2257562e-05  -3.7770181e-05  -6.7369008e-05  -3.7982408e-05  -8.1303514e-05  -6.6318667e-05  -2.3619743e-05  -3.4004947e-05  -3.6978140e-05  -2.0204958e-05  -9.2016627e-05  -5.1305489e-05  -6.4387186e-05  -8.1903756e-05  -7.5572842e-05   6.9459384e-05   2.7146070e-05   4.6144351e-05  -9.6158112e-05   1.1308565e-04  -8.5288819e-05  -1.0872844e-04   6.1336338e-05   7.1835916e-05   1.7851434e-04   9.3283207e-05   1.3650668e-04   1.1607618e-04   1.6859733e-04   2.4099296e-04   1.8402426e-04   7.8948868e-05   5.6031813e-05   6.9342874e-05  -1.0578288e-04   1.1452930e-04   9.2015031e-05   1.2982984e-04   1.8729914e-07   1.3157603e-05  -1.6542507e-05  -1.0451490e-05   2.5758627e-05  -7.9108522e-05   5.4979625e-05   6.4107820e-05   7.1198719e-05  -8.7646137e-05   1.4195520e-04  -7.9044995e-05   1.3314172e-04   1.2520416e-04   4.8394921e-05  -1.3793037e-05   6.4283184e-05
