   6.9716841e-05   5.1115059e-05  -2.0382997e-05  -9.4944884e-06   1.6247529e-06  -2.2932665e-05  -5.4811540e-05  -5.0651693e-05  -5.4127442e-05  -6.0967541e-05  -1.3281608e-05  -4.9476185e-05  -4.2469265e-06  -2.6446719e-05  -3.6630542e-05  -4.5041343e-05   0.0000000e+00   2.0753350e-06  -2.6338428e-05  -7.3543685e-05  -4.7932535e-05   1.8712342e-06  -1.3523084e-05   1.0740365e-05   3.2340349e-05  -5.6256328e-05  -5.1832834e-05  -2.9839938e-05  -7.9654878e-06  -3.5004199e-05  -5.6520423e-05  -6.8624558e-05  -4.2088572e-05   0.0000000e+00  -4.0932810e-05  -1.7073351e-05  -5.9397221e-05  -2.3534938e-05  -6.7433890e-05  -1.4027051e-05  -8.4824391e-05  -7.4645022e-05  -1.3790345e-04  -2.7220685e-05  -1.0437957e-04  -1.7220874e-04  -3.7777138e-05  -2.1558031e-05  -5.6369315e-05  -3.3561976e-05  -7.7176313e-05  -6.2362275e-06  -1.6386040e-04  -1.2534255e-04   0.0000000e+00  -4.2312553e-05  -9.7585143e-05  -1.7321605e-04  -8.8464085e-05  -1.5751870e-04  -1.0473116e-04  -1.0454702e-04  -1.4183401e-04  -2.0762101e-04   5.7504522e-05  -3.3783649e-05  -1.7153941e-04  -1.5948294e-04  -1.5569090e-04  -1.0413309e-04   3.4725125e-05   0.0000000e+00  -5.0649789e-05  -2.1449785e-04   1.1637826e-05  -6.4934531e-05  -7.3274199e-04  -7.8483812e-04  -3.1950571e-04  -5.0988652e-04  -4.1883362e-04  -2.4684256e-05  -2.4244115e-04  -2.9969870e-04  -1.2136489e-04  -2.4671490e-04   7.8486138e-04  -1.0327148e-04  -7.7176356e-05  -3.8203269e-04  -4.6022071e-05   8.2334287e-04   0.0000000e+00   4.3321243e-04   7.1373238e-04   4.3534252e-04  -1.7296494e-04  -2.9756368e-04  -7.5892478e-05   7.2922606e-05  -2.1724636e-04  -1.0629347e-04   1.0587090e-03   3.7036005e-05  -4.3025854e-04  -3.4474906e-04  -5.6016278e-04  -3.7128328e-04   8.2302460e-04   0.0000000e+00  -4.5796386e-05  -6.3645423e-05  -3.6157236e-04  -1.0358563e-04  -5.7035909e-05  -8.5457860e-05  -9.5125124e-05  -1.1867461e-04  -8.0340072e-05  -5.7071394e-05  -3.8631841e-05  -6.2709313e-05  -5.4097112e-05  -1.0394730e-04  -4.0759272e-05  -8.2873749e-05  -7.2377743e-05  -8.3840535e-05  -5.7792269e-05  -1.0946265e-04   0.0000000e+00   5.7081930e-06  -2.4645510e-06  -9.0200937e-05  -6.2442032e-05  -4.8411034e-05  -6.1742926e-05  -2.9953109e-05  -2.2795173e-05  -1.3861994e-04   5.3651001e-06  -8.0134614e-05  -9.9801449e-05  -8.1498603e-05  -1.3640240e-04  -8.2111270e-05  -4.2741623e-06   0.0000000e+00  -7.2166387e-05  -6.9298891e-05  -9.6224448e-05  -9.8198069e-05  -9.5749713e-05  -8.0646191e-05  -1.3026034e-04  -1.9726153e-04  -1.4708204e-04  -5.5125448e-05  -2.6083322e-05  -5.8114925e-05  -5.7292385e-05  -9.4705716e-05  -1.9389155e-05  -7.3735807e-05  -8.1402093e-05  -5.2116125e-05  -5.5828583e-05  -1.0611897e-04   0.0000000e+00  -1.3239882e-05  -3.8625534e-05  -1.2029279e-04  -8.4083502e-05  -8.7401079e-05  -5.5612907e-05  -1.0579159e-04  -1.2367021e-04  -1.1308006e-04  -6.1243258e-05  -7.7685013e-05  -8.2229074e-05  -3.3824524e-05  -4.2975816e-05  -1.2346729e-04  -7.2935446e-05   0.0000000e+00  -9.1061263e-05  -6.3911061e-05  -6.0537491e-05  -5.3603554e-05  -8.3991919e-06  -2.0222955e-05  -4.9223270e-05  -5.9291501e-05   2.1023149e-06  -1.8173315e-05  -8.3051809e-05  -5.9988926e-05  -5.5125394e-05  -5.8373575e-05   1.0794421e-04  -4.7300102e-05  -3.1671527e-05  -5.7610703e-05  -5.4823008e-06   7.9517868e-05   0.0000000e+00   7.4616360e-05   1.1956034e-04  -2.5932857e-06  -1.4689452e-05   4.6820214e-05   1.0565417e-05   8.4115026e-06  -3.0286188e-05  -6.8632293e-06   3.1241575e-05  -4.5332189e-05  -7.3812377e-05  -4.7765550e-05  -8.7548397e-05  -1.9864497e-05   4.8585086e-05   0.0000000e+00  -2.6129475e-05  -2.3518327e-05  -5.1210532e-05  -5.8975238e-05  -5.1134547e-05  -6.1444188e-05  -9.0677126e-05  -7.3499425e-05  -4.1134912e-05  -5.4619929e-05  -2.1712422e-05  -4.9471447e-05  -4.1571880e-05   1.3083696e-05   5.7933604e-05  -9.5324278e-05  -5.7104880e-05  -9.4283528e-05  -2.8300456e-05   2.7489265e-05   0.0000000e+00   6.2513689e-05   6.0162660e-05  -3.1506943e-05  -4.9802664e-05  -3.5295188e-05  -4.2848340e-05  -2.9030173e-05   5.0283224e-06  -6.7509730e-05   4.0850083e-05  -3.1132197e-05  -2.7283451e-05  -5.6212803e-05  -2.5249695e-05  -4.8884667e-06   9.0610521e-05   0.0000000e+00  -2.4334267e-05  -4.8606791e-06  -4.5486164e-05   1.1488875e-06  -1.5144412e-04   4.6940509e-06  -5.6117715e-05  -2.1545018e-06  -9.0200524e-05   6.1200274e-05   7.3246054e-05  -3.1863243e-05   1.4579588e-05   1.2578098e-04  -6.3526701e-05   1.3410999e-04  -5.5174646e-05  -2.1480214e-06   1.4318607e-05   2.1893648e-05   0.0000000e+00  -4.5868595e-05  -7.9056294e-05   5.2550597e-05   2.6761764e-05  -8.8287636e-05  -2.1902077e-05  -1.4946816e-04  -1.0562871e-04   1.4562958e-05   1.2954893e-05   6.7581958e-05   2.7295842e-05  -1.8430663e-05   4.0616982e-05  -2.1399802e-05   5.4436579e-05   0.0000000e+00  -2.5353164e-06  -6.2315037e-05   2.9933996e-05   6.7707601e-05  -7.2355747e-05  -1.3283969e-04  -1.1736327e-04  -1.4167915e-04  -4.1923231e-05  -9.0644889e-05   1.5188218e-04   2.1437269e-04  -7.6434796e-05  -1.8269341e-04   3.3698188e-05  -1.2460437e-04   1.8158599e-04   1.7214906e-04   2.1107183e-04  -5.1186519e-06   0.0000000e+00   5.7266451e-05   7.8854833e-05  -7.0685188e-06  -1.3472819e-04  -4.5211536e-05  -1.0540455e-04  -7.7990878e-05  -4.6056654e-05  -1.6895263e-04   2.8370377e-05  -1.4784418e-04  -1.7796980e-04   1.7205903e-06   1.0390972e-04  -1.5059336e-04  -9.3126377e-06   0.0000000e+00  -2.1752721e-04  -4.0716746e-05   4.9578104e-05  -5.5356473e-05  -2.1620949e-04  -5.6985387e-05  -2.4682144e-04  -4.5077458e-04  -2.5712535e-04  -2.0895357e-04  -4.5914998e-04  -3.9079349e-04  -2.0926408e-04  -2.4972899e-04  -1.8987372e-04  -4.2502104e-04  -7.8221057e-04  -7.4201900e-04  -2.0675039e-04  -2.6168493e-04   0.0000000e+00  -2.0507607e-05  -9.2185287e-05  -2.8620027e-04  -2.2743029e-04  -2.5505384e-04  -1.6427272e-04  -3.0135358e-04  -2.8601361e-04  -3.8154069e-04  -1.3796245e-04  -3.5175691e-04  -2.9689899e-04  -3.0918317e-04  -3.5316707e-04  -2.5945439e-04  -1.4667163e-04   0.0000000e+00  -2.4093321e-04  -3.1032624e-04  -4.8409260e-04  -3.0998000e-04  -1.5893271e-04  -9.9262719e-07  -5.3297073e-05  -2.3180521e-04  -1.4763557e-04   4.1762526e-06  -5.3296596e-05  -5.0210545e-05   4.1387185e-05  -5.0108781e-05  -1.3154159e-04  -5.1173850e-05  -8.9449616e-06  -9.3975815e-05   1.7273049e-05  -2.3128460e-04   0.0000000e+00  -3.6755937e-06  -7.9842582e-05  -7.5018677e-05  -4.8005757e-06  -9.6332632e-05   2.4245072e-07  -1.6096707e-04  -1.7614615e-04   2.8045027e-05  -1.3351632e-04  -4.1379478e-05   1.2902173e-04   6.8645335e-05   2.7232357e-05   3.2181566e-05   2.8702033e-05   0.0000000e+00  -1.3536505e-04  -7.6501863e-05  -5.4907849e-05  -9.3000599e-05   4.4829262e-05  -3.3370712e-05   1.0284382e-04   9.3240920e-05  -2.0271060e-05   5.8206925e-05   9.2746845e-05   6.2660385e-06   6.0862117e-05   7.4839133e-06  -3.9509052e-04  -1.6275768e-05   2.1700460e-04   1.7387739e-04  -1.2149421e-04  -4.1470898e-04   0.0000000e+00  -8.9225604e-05  -4.9477632e-05  -1.1498931e-04  -6.1869674e-05  -3.9126374e-05   4.4201876e-06  -5.4701710e-05  -4.7112862e-06  -1.6766050e-04  -2.1259556e-04  -9.8501879e-05  -1.1032539e-04   1.3432001e-04   3.9817111e-04  -1.0120949e-04  -1.4550712e-04   0.0000000e+00  -4.6188957e-05   9.6586857e-05  -3.7031749e-05  -2.6458277e-04
   7.9094901e-05   5.8188933e-05  -1.9231039e-05  -1.1172237e-05   5.9524359e-06  -2.5515899e-05  -6.0149801e-05  -5.3810454e-05  -5.9217208e-05  -6.5069980e-05  -1.3520015e-05  -5.5523443e-05  -4.5680176e-06  -3.1399775e-05  -3.7951795e-05  -5.1461689e-05   0.0000000e+00   3.0562973e-06  -2.7902796e-05  -8.3868993e-05  -5.8680096e-05   3.3744052e-06  -1.8341642e-05   1.3816015e-05   3.7965444e-05  -6.6930596e-05  -5.7958746e-05  -3.2120699e-05  -6.5343008e-06  -3.4842754e-05  -5.6261348e-05  -8.8524307e-05  -5.1358893e-05   0.0000000e+00  -4.5462966e-05  -1.9092879e-05  -6.0067680e-05  -2.5958974e-05  -8.0389870e-05  -3.4246384e-05  -8.8457017e-05  -8.2369251e-05  -1.5332479e-04  -3.3155607e-05  -1.0763625e-04  -1.9061868e-04  -4.9196689e-05  -1.2429530e-05  -7.1778011e-05  -4.2779354e-05  -8.3204233e-05   3.1936318e-06  -1.8232829e-04  -1.3300150e-04   0.0000000e+00  -5.0313488e-05  -1.1113203e-04  -1.9205781e-04  -1.1734396e-04  -1.8263111e-04  -1.3115630e-04  -1.1320466e-04  -1.6434517e-04  -2.5221625e-04   1.0151374e-04  -3.0514027e-05  -2.1474279e-04  -1.8773930e-04  -1.9913941e-04  -1.4666279e-04   5.7151992e-05   0.0000000e+00  -5.7374242e-05  -2.3920761e-04   2.7470786e-05  -4.3500455e-05  -8.4561354e-04  -8.8473824e-04  -3.7975570e-04  -5.9762380e-04  -4.6643107e-04  -9.5712918e-06  -2.8437823e-04  -3.6065941e-04  -1.3406780e-04  -2.9872061e-04   9.3925607e-04  -1.1592665e-04  -6.5679935e-05  -4.4898794e-04  -3.1304934e-05   9.7069095e-04   0.0000000e+00   5.1003634e-04   8.4739034e-04   4.8340128e-04  -2.1155825e-04  -3.2129497e-04  -7.3900743e-05   8.0185045e-05  -2.6004295e-04  -1.1076036e-04   1.2008614e-03   4.5100430e-05  -4.9278951e-04  -3.9620179e-04  -6.4708603e-04  -3.9681071e-04   9.4367887e-04   0.0000000e+00  -7.1739919e-05  -7.1732643e-05  -4.0779802e-04  -1.5518800e-04  -6.4181091e-05  -9.5118029e-05  -1.0603971e-04  -1.3267651e-04  -8.9211917e-05  -6.3668751e-05  -4.7055885e-05  -7.6924329e-05  -6.3480926e-05  -1.1233380e-04  -4.4185349e-05  -9.1017929e-05  -8.4817729e-05  -9.7915645e-05  -6.7763453e-05  -1.1800866e-04   0.0000000e+00   5.8779449e-06  -1.2798792e-06  -1.0270943e-04  -7.4755219e-05  -5.4762278e-05  -7.2327432e-05  -3.3955439e-05  -2.6936172e-05  -1.5581409e-04   7.2917353e-06  -8.7173539e-05  -1.0923806e-04  -8.9855331e-05  -1.4724546e-04  -9.7462021e-05  -6.3149786e-06   0.0000000e+00  -7.7345591e-05  -7.9678734e-05  -1.0392664e-04  -1.0609885e-04  -1.0825622e-04  -9.3056360e-05  -1.4239063e-04  -2.2615073e-04  -1.5938225e-04  -6.1468087e-05  -3.0694434e-05  -6.4398547e-05  -6.7448528e-05  -1.0720927e-04  -3.1426147e-05  -8.2872415e-05  -9.1044110e-05  -5.7150762e-05  -6.1420422e-05  -1.2484862e-04   0.0000000e+00  -1.9314677e-05  -4.8981717e-05  -1.3465969e-04  -9.4996553e-05  -9.7478471e-05  -6.3957826e-05  -1.1756861e-04  -1.3082088e-04  -1.2866638e-04  -7.1217293e-05  -8.8724553e-05  -8.9334165e-05  -3.0989882e-05  -4.5700939e-05  -1.3855473e-04  -8.3083405e-05   0.0000000e+00  -1.0080047e-04  -6.9604774e-05  -6.7324120e-05  -6.4889477e-05  -1.3207141e-06  -2.6506448e-05  -4.1823934e-05  -5.8714440e-05   1.4005301e-05  -2.1132225e-05  -9.9883260e-05  -6.8589188e-05  -5.9638207e-05  -6.5076274e-05   1.2219125e-04  -5.6824956e-05  -3.4166900e-05  -6.3111029e-05  -8.8995943e-06   8.7545140e-05   0.0000000e+00   8.7018957e-05   1.3580110e-04  -1.1713701e-05  -2.2998087e-05   5.6806768e-05   1.2215879e-05   1.5621613e-05  -3.4175961e-05  -1.2451278e-05   3.9899256e-05  -5.2879435e-05  -8.4267192e-05  -5.5059500e-05  -1.0335787e-04  -2.1870385e-05   5.9694596e-05   0.0000000e+00  -2.7079745e-05  -3.2212159e-05  -5.3015183e-05  -7.0601599e-05  -5.7498581e-05  -6.3280325e-05  -1.0036979e-04  -7.1397675e-05  -4.2464345e-05  -6.2081200e-05  -2.2771920e-05  -6.5569984e-05  -4.6492551e-05   1.8321444e-05   6.2767652e-05  -1.0339122e-04  -6.8854788e-05  -1.0764505e-04  -3.9147383e-05   2.7657999e-05   0.0000000e+00   7.0107629e-05   6.3220607e-05  -4.0031219e-05  -5.2671206e-05  -3.7586809e-05  -4.6822163e-05  -3.0235574e-05   1.1550720e-05  -7.1003513e-05   4.4678634e-05  -2.8292802e-05  -2.4417515e-05  -6.4761751e-05  -2.4396220e-05   8.6531116e-07   1.0141595e-04   0.0000000e+00  -2.1794139e-05  -1.0862300e-05  -5.3805581e-05  -4.0490935e-06  -1.8291372e-04  -1.4491044e-06  -6.7957201e-05  -6.0553270e-06  -1.1460159e-04   6.2525626e-05   7.9040163e-05  -4.5017237e-05   1.0396713e-05   1.3167350e-04  -7.8023934e-05   1.3852811e-04  -6.3318531e-05  -6.1361763e-06   5.6232098e-06   1.7307467e-05   0.0000000e+00  -5.1065402e-05  -9.5987740e-05   5.6405079e-05   3.5761527e-05  -1.0736934e-04  -2.4822119e-05  -1.8566021e-04  -1.3905167e-04   1.7400320e-05   1.3184723e-05   6.8809972e-05   2.1087048e-05  -2.2874875e-05   4.8394900e-05  -1.0306632e-05   6.3163784e-05   0.0000000e+00  -6.5952200e-06  -7.6151126e-05   3.1976741e-05   7.0116934e-05  -8.0115549e-05  -1.4398279e-04  -1.1673208e-04  -1.3895780e-04  -3.9131330e-05  -8.8479993e-05   1.6785085e-04   2.4123499e-04  -6.4526825e-05  -1.9074947e-04   4.0230030e-05  -1.2424295e-04   2.0610181e-04   1.9819452e-04   2.3438814e-04   2.5167525e-06   0.0000000e+00   6.0857516e-05   8.8433758e-05   9.0249462e-06  -1.3653721e-04  -4.3416906e-05  -1.0740551e-04  -7.5385038e-05  -5.0800360e-05  -1.6634219e-04   2.1353924e-05  -1.4865496e-04  -1.7003463e-04   8.5609954e-06   1.2093194e-04  -1.4457216e-04  -1.0742359e-05   0.0000000e+00  -2.2030362e-04  -5.5741097e-05   6.2538456e-05  -6.5074686e-05  -2.4148658e-04  -6.2577630e-05  -2.6979638e-04  -4.9479686e-04  -2.7720283e-04  -2.3151751e-04  -5.2991909e-04  -4.5954861e-04  -2.3745109e-04  -2.6149578e-04  -2.0185361e-04  -4.4725430e-04  -8.9571400e-04  -8.4721270e-04  -2.4474463e-04  -2.9497718e-04   0.0000000e+00  -2.3647677e-05  -1.0545134e-04  -3.3032249e-04  -2.6528358e-04  -2.7932219e-04  -1.9272187e-04  -3.2859656e-04  -3.1343221e-04  -4.3064334e-04  -1.5406668e-04  -3.9372837e-04  -3.3693940e-04  -3.4336656e-04  -4.0207197e-04  -2.7857310e-04  -1.5885963e-04   0.0000000e+00  -2.7253481e-04  -3.3508372e-04  -5.4484737e-04  -3.5075877e-04  -2.0452965e-04   4.6214612e-06  -5.8459420e-05  -2.5139168e-04  -1.7512218e-04   1.3262990e-05  -5.9033937e-05  -7.8262985e-05   4.3745415e-05  -5.3691065e-05  -1.8451134e-04  -4.7318996e-05  -2.8481802e-05  -1.1395626e-04   1.2598321e-06  -2.9573346e-04   0.0000000e+00  -1.8631935e-05  -1.1179430e-04  -9.6302910e-05  -1.9706014e-06  -1.1514649e-04  -6.8429733e-06  -2.0285089e-04  -2.0239063e-04   3.4117988e-05  -1.7531682e-04  -4.6638466e-05   1.6980571e-04   7.7022200e-05   3.2741860e-05   4.9985860e-05   2.5843947e-05   0.0000000e+00  -1.4558749e-04  -9.8564281e-05  -6.3812357e-05  -1.1505772e-04   6.1996040e-05  -1.3140450e-05   1.4853526e-04   1.2510112e-04  -1.3082865e-05   6.4541261e-05   7.8994761e-05  -1.1175996e-05   8.2411037e-05   2.1118883e-05  -4.7517192e-04  -1.9908763e-05   2.3459398e-04   2.0384828e-04  -1.4671030e-04  -4.9569592e-04   0.0000000e+00  -1.1849446e-04  -9.7251715e-05  -1.4223432e-04  -3.9620656e-05  -2.9620925e-05   2.5214365e-05  -5.6587042e-05   6.8079153e-06  -1.3190792e-04  -3.2022478e-04  -1.0570313e-04  -6.5581496e-05   2.0019688e-04   5.0272675e-04  -9.5064206e-05  -2.4113666e-04   0.0000000e+00  -5.0738213e-05   1.3732174e-04  -7.3307953e-06  -2.8658226e-04
   8.7047835e-05   6.4089499e-05  -1.7292126e-05  -1.3372578e-05   1.0332287e-05  -2.7700637e-05  -6.4254191e-05  -5.5566112e-05  -6.3083388e-05  -6.7447824e-05  -1.3176771e-05  -6.0664084e-05  -4.7455630e-06  -3.6234202e-05  -3.8213436e-05  -5.7195584e-05   0.0000000e+00   4.1897626e-06  -2.8826982e-05  -9.3212267e-05  -6.9494867e-05   4.8129878e-06  -2.3496750e-05   1.6396499e-05   4.3100881e-05  -7.7337877e-05  -6.3001684e-05  -3.3663756e-05  -4.7036071e-06  -3.3408247e-05  -5.4154718e-05  -1.0920540e-04  -6.0273199e-05   0.0000000e+00  -4.9323433e-05  -2.0439525e-05  -5.8729218e-05  -2.7805100e-05  -9.1954575e-05  -5.7526895e-05  -8.7021435e-05  -8.5773090e-05  -1.6600904e-04  -3.9441416e-05  -1.0870540e-04  -2.0521921e-04  -6.1382037e-05   3.4391436e-07  -8.8799869e-05  -5.2481459e-05  -8.3602273e-05   1.6776691e-05  -1.9676329e-04  -1.3797976e-04   0.0000000e+00  -5.7738845e-05  -1.2266114e-04  -2.0654642e-04  -1.4763167e-04  -2.0660649e-04  -1.5784144e-04  -1.2018774e-04  -1.8671155e-04  -2.9654814e-04   1.5303572e-04  -2.5725633e-05  -2.6116064e-04  -2.1736144e-04  -2.4706621e-04  -1.9160490e-04   8.3310942e-05   0.0000000e+00  -6.4313177e-05  -2.6070390e-04   4.4926198e-05  -1.4115612e-05  -9.4290316e-04  -9.6326677e-04  -4.3533661e-04  -6.7819764e-04  -5.0326488e-04   9.6422276e-06  -3.1527702e-04  -4.1995680e-04  -1.4022965e-04  -3.4284505e-04   1.0843076e-03  -1.2398342e-04  -4.6293386e-05  -5.0947754e-04  -1.6495100e-05   1.1041797e-03   0.0000000e+00   5.7578760e-04   9.6322587e-04   5.2008897e-04  -2.4657893e-04  -3.3454854e-04  -6.9693930e-05   8.9071012e-05  -2.9767405e-04  -1.1093361e-04   1.3154755e-03   5.4352552e-05  -5.4193823e-04  -4.3958304e-04  -7.2081613e-04  -4.1045695e-04   1.0428341e-03   0.0000000e+00  -9.8773012e-05  -7.5020175e-05  -4.4735817e-04  -1.9967164e-04  -7.0994646e-05  -1.0357396e-04  -1.1466077e-04  -1.4457563e-04  -9.6705052e-05  -6.8827060e-05  -5.5469100e-05  -9.0841695e-05  -7.1764432e-05  -1.1777963e-04  -4.6496215e-05  -9.7167198e-05  -9.6873356e-05  -1.1110506e-04  -7.7088296e-05  -1.2340236e-04   0.0000000e+00   5.9484555e-06   1.0616585e-07  -1.1335522e-04  -8.6404560e-05  -6.0755107e-05  -8.2157226e-05  -3.8247503e-05  -3.2060635e-05  -1.7034608e-04   9.4845789e-06  -9.2316477e-05  -1.1638628e-04  -9.6604296e-05  -1.5493402e-04  -1.1218864e-04  -8.3913214e-06   0.0000000e+00  -8.0653887e-05  -8.9248960e-05  -1.0970906e-04  -1.1181821e-04  -1.2045619e-04  -1.0497419e-04  -1.5270641e-04  -2.5325352e-04  -1.6869583e-04  -6.6927844e-05  -3.4343129e-05  -6.8691439e-05  -7.7026861e-05  -1.1877400e-04  -4.3525946e-05  -9.1449543e-05  -9.9604480e-05  -6.1180766e-05  -6.4890793e-05  -1.4178696e-04   0.0000000e+00  -2.5282727e-05  -5.8995614e-05  -1.4661249e-04  -1.0475211e-04  -1.0607509e-04  -7.1863274e-05  -1.2737782e-04  -1.3523376e-04  -1.4285471e-04  -7.9642631e-05  -9.8395927e-05  -9.4530063e-05  -2.6504987e-05  -4.6989794e-05  -1.5253068e-04  -9.2268391e-05   0.0000000e+00  -1.0806446e-04  -7.3840211e-05  -7.2474437e-05  -7.6427930e-05   7.7752383e-06  -3.2751439e-05  -3.0524115e-05  -5.4780674e-05   2.8516504e-05  -2.3750811e-05  -1.1599282e-04  -7.5655753e-05  -6.2322513e-05  -6.9862658e-05   1.3581538e-04  -6.5713247e-05  -3.5650267e-05  -6.7073990e-05  -1.2182226e-05   9.4896329e-05   0.0000000e+00   9.9073746e-05   1.5102081e-04  -2.1715299e-05  -3.2069825e-05   6.6974785e-05   1.3826481e-05   2.4445871e-05  -3.6750455e-05  -1.8306599e-05   4.9410848e-05  -5.9476233e-05  -9.2593654e-05  -6.1553123e-05  -1.1787094e-04  -2.3491781e-05   7.0886654e-05   0.0000000e+00  -2.6864274e-05  -4.1032248e-05  -5.3178093e-05  -8.1702843e-05  -6.2810169e-05  -6.2987733e-05  -1.0810201e-04  -6.6883980e-05  -4.2380206e-05  -6.8033654e-05  -2.2072323e-05  -8.1596632e-05  -5.0363865e-05   2.3307462e-05   6.7255608e-05  -1.0875551e-04  -7.9270394e-05  -1.1948962e-04  -4.9850059e-05   2.7774320e-05   0.0000000e+00   7.6912114e-05   6.4797057e-05  -4.7614210e-05  -5.3304364e-05  -3.8685662e-05  -4.9450607e-05  -3.0867628e-05   1.8048079e-05  -7.1999570e-05   4.8131151e-05  -2.3342841e-05  -1.9652532e-05  -7.1120263e-05  -2.2187892e-05   7.7150960e-06   1.1030229e-04   0.0000000e+00  -1.7643412e-05  -1.7096706e-05  -6.0727547e-05  -9.5429699e-06  -2.1295450e-04  -8.4422370e-06  -7.8353929e-05  -1.0762003e-05  -1.3871745e-04   6.0989063e-05   8.0880619e-05  -5.8852394e-05   4.4343485e-06   1.3240708e-04  -9.2699504e-05   1.3738167e-04  -7.3386457e-05  -1.1215760e-05  -5.4484888e-06   1.0156349e-05   0.0000000e+00  -5.5489058e-05  -1.1255935e-04   5.7602094e-05   4.4185412e-05  -1.2569279e-04  -2.8140537e-05  -2.2119662e-04  -1.7251346e-04   1.8921863e-05   1.2228823e-05   6.7713710e-05   1.3313097e-05  -2.7742380e-05   5.4371212e-05   1.9366978e-06   6.9627571e-05   0.0000000e+00  -1.1316467e-05  -9.0815804e-05   3.2578475e-05   6.9305345e-05  -8.6042733e-05  -1.5288394e-04  -1.1027295e-04  -1.3103615e-04  -3.2456512e-05  -8.1992866e-05   1.8358412e-04   2.6834695e-04  -4.6934125e-05  -1.9210658e-04   4.7180978e-05  -1.1847750e-04   2.3346368e-04   2.2339590e-04   2.5641630e-04   1.3977164e-05   0.0000000e+00   6.3308281e-05   9.7576905e-05   2.8461254e-05  -1.3358411e-04  -3.7857114e-05  -1.0492772e-04  -6.9881154e-05  -5.2963735e-05  -1.5590119e-04   1.2737072e-05  -1.4396409e-04  -1.5421079e-04   1.7758254e-05   1.3632434e-04  -1.3097010e-04  -1.1164062e-05   0.0000000e+00  -2.1422751e-04  -6.9158390e-05   7.5102227e-05  -7.2175122e-05  -2.6162829e-04  -6.3936430e-05  -2.8767658e-04  -5.3206565e-04  -2.9247442e-04  -2.4865084e-04  -5.9827153e-04  -5.2789610e-04  -2.6244823e-04  -2.6733782e-04  -2.0828704e-04  -4.5780298e-04  -1.0027758e-03  -9.4551950e-04  -2.8491915e-04  -3.2307370e-04   0.0000000e+00  -2.6539157e-05  -1.1784293e-04  -3.6948161e-04  -2.9918430e-04  -2.9587793e-04  -2.1824499e-04  -3.4933272e-04  -3.3554390e-04  -4.7174574e-04  -1.6642464e-04  -4.2730566e-04  -3.7076149e-04  -3.7112901e-04  -4.4664120e-04  -2.9168871e-04  -1.6799023e-04   0.0000000e+00  -2.9922837e-04  -3.5080001e-04  -5.9959655e-04  -3.8736580e-04  -2.5264595e-04   1.0945004e-05  -6.3111710e-05  -2.6725035e-04  -2.0200534e-04   2.3100201e-05  -6.5469731e-05  -1.0819837e-04   4.4122720e-05  -5.7356209e-05  -2.4029760e-04  -4.2522142e-05  -5.1758542e-05  -1.3414593e-04  -1.7245669e-05  -3.5869808e-04   0.0000000e+00  -3.6341121e-05  -1.4732734e-04  -1.1909934e-04   1.0149631e-06  -1.3405937e-04  -1.5815443e-05  -2.4625507e-04  -2.2728921e-04   3.8594143e-05  -2.2009568e-04  -5.1673435e-05   2.1230541e-04   8.5454629e-05   3.7945967e-05   6.7401772e-05   1.8185033e-05   0.0000000e+00  -1.5235179e-04  -1.2092880e-04  -7.0642687e-05  -1.3553884e-04   8.5761319e-05   1.7437410e-05   2.0557602e-04   1.6663526e-04   4.9846619e-07   7.1917540e-05   6.0622172e-05  -3.1402809e-05   1.1005492e-04   4.1599263e-05  -5.5894866e-04  -1.9644216e-05   2.5458169e-04   2.3539965e-04  -1.7410281e-04  -5.8060433e-04   0.0000000e+00  -1.5190430e-04  -1.5596708e-04  -1.6969219e-04  -8.2216993e-06  -1.3345279e-05   5.1794429e-05  -5.1850386e-05   2.2450817e-05  -7.9473837e-05  -4.4286780e-04  -1.0733624e-04  -5.5433790e-06   2.7216408e-04   6.1394906e-04  -7.7864213e-05  -3.5000290e-04   0.0000000e+00  -5.1407881e-05   1.8150035e-04   2.8487143e-05  -3.0188282e-04
   9.3141593e-05   6.8347000e-05  -1.4819707e-05  -1.6442758e-05   1.4346824e-05  -2.9566393e-05  -6.7077716e-05  -5.5909832e-05  -6.5748928e-05  -6.8270314e-05  -1.2208468e-05  -6.4955385e-05  -4.8872613e-06  -4.0869782e-05  -3.7477858e-05  -6.2065932e-05   0.0000000e+00   5.5074056e-06  -2.9075263e-05  -1.0146358e-04  -8.0196871e-05   6.0265405e-06  -2.8930974e-05   1.8147908e-05   4.7517927e-05  -8.7396951e-05  -6.6760958e-05  -3.4580957e-05  -2.7767177e-06  -3.0832222e-05  -5.0541443e-05  -1.3015846e-04  -6.8432571e-05   0.0000000e+00  -5.2574666e-05  -2.0955410e-05  -5.5588388e-05  -2.9072706e-05  -1.0176611e-04  -8.3219509e-05  -8.0196218e-05  -8.4407683e-05  -1.7584315e-04  -4.6195170e-05  -1.0827120e-04  -2.1573892e-04  -7.4130763e-05   1.6135570e-05  -1.0754411e-04  -6.2727406e-05  -7.7636987e-05   3.4519514e-05  -2.0681890e-04  -1.4110556e-04   0.0000000e+00  -6.4366531e-05  -1.3192740e-04  -2.1655439e-04  -1.7843869e-04  -2.2908212e-04  -1.8400163e-04  -1.2570973e-04  -2.0874450e-04  -3.3949536e-04   2.1036971e-04  -1.9956171e-05  -3.1007963e-04  -2.4803688e-04  -2.9820306e-04  -2.3737422e-04   1.1219184e-04   0.0000000e+00  -7.1767091e-05  -2.7863829e-04   6.3295732e-05   2.2521829e-05  -1.0201866e-03  -1.0160884e-03  -4.8404435e-04  -7.4867530e-04  -5.2823841e-04   3.2170295e-05  -3.3107815e-04  -4.7544165e-04  -1.3858171e-04  -3.7594787e-04   1.2124644e-03  -1.2653213e-04  -1.9449287e-05  -5.6036897e-04  -3.8673849e-06   1.2163040e-03   0.0000000e+00   6.2565246e-04   1.0523269e-03   5.4377403e-04  -2.7552947e-04  -3.3643243e-04  -6.3799356e-05   1.0023125e-04  -3.2797954e-04  -1.0646537e-04   1.3954762e-03   6.4718638e-05  -5.7414404e-04  -4.7220765e-04  -7.7704703e-04  -4.1138920e-04   1.1138512e-03   0.0000000e+00  -1.2540529e-04  -7.2159901e-05  -4.7866388e-04  -2.3188527e-04  -7.7553230e-05  -1.1080894e-04  -1.2076402e-04  -1.5418085e-04  -1.0277436e-04  -7.2353568e-05  -6.3616948e-05  -1.0390019e-04  -7.8606167e-05  -1.2024446e-04  -4.7552568e-05  -1.0122308e-04  -1.0824952e-04  -1.2304172e-04  -8.5412071e-05  -1.2544265e-04   0.0000000e+00   5.9948894e-06   1.6668478e-06  -1.2168269e-04  -9.6929318e-05  -6.6374536e-05  -9.0892712e-05  -4.2948421e-05  -3.8416103e-05  -1.8176977e-04   1.1919351e-05  -9.5480122e-05  -1.2115029e-04  -1.0169096e-04  -1.5947465e-04  -1.2578131e-04  -1.0352568e-05   0.0000000e+00  -8.2114617e-05  -9.7844288e-05  -1.1363000e-04  -1.1534019e-04  -1.3245333e-04  -1.1638248e-04  -1.6122911e-04  -2.7798270e-04  -1.7508182e-04  -7.1429533e-05  -3.6790359e-05  -7.0783149e-05  -8.5652835e-05  -1.2915439e-04  -5.4956695e-05  -9.9353725e-05  -1.0702047e-04  -6.4111508e-05  -6.6092211e-05  -1.5623909e-04   0.0000000e+00  -3.0803043e-05  -6.8119300e-05  -1.5573553e-04  -1.1310875e-04  -1.1300680e-04  -7.9154001e-05  -1.3492592e-04  -1.3702263e-04  -1.5527825e-04  -8.5936059e-05  -1.0629639e-04  -9.7649829e-05  -2.0568503e-05  -4.6854961e-05  -1.6515615e-04  -1.0017319e-04   0.0000000e+00  -1.1249494e-04  -7.6507537e-05  -7.5620655e-05  -8.7922944e-05   1.8418419e-05  -3.8704039e-05  -1.5915694e-05  -4.7666364e-05   4.4993321e-05  -2.5963985e-05  -1.3068784e-04  -8.0843805e-05  -6.3096320e-05  -7.2482826e-05   1.4879399e-04  -7.3612972e-05  -3.6178342e-05  -6.9521340e-05  -1.5041192e-05   1.0171083e-04   0.0000000e+00   1.1053388e-04   1.6502935e-04  -3.1992743e-05  -4.1503086e-05   7.6941717e-05   1.5354740e-05   3.4590282e-05  -3.7869024e-05  -2.4089735e-05   5.9586128e-05  -6.4811262e-05  -9.8376342e-05  -6.7078210e-05  -1.3055303e-04  -2.4673461e-05   8.1776602e-05   0.0000000e+00  -2.5487703e-05  -4.9598047e-05  -5.1855417e-05  -9.1822448e-05  -6.7041852e-05  -6.0715716e-05  -1.1356962e-04  -6.0395679e-05  -4.0952462e-05  -7.2184757e-05  -1.9422667e-05  -9.6659991e-05  -5.3022533e-05   2.7724076e-05   7.1406263e-05  -1.1128407e-04  -8.7704822e-05  -1.2933922e-04  -5.9722871e-05   2.8021800e-05   0.0000000e+00   8.2713033e-05   6.4874789e-05  -5.3725486e-05  -5.1494361e-05  -3.8573427e-05  -5.0581957e-05  -3.1105004e-05   2.3986714e-05  -7.0360649e-05   5.1137025e-05  -1.6447353e-05  -1.3113395e-05  -7.4811075e-05  -1.8739270e-05   1.5509228e-05   1.1688477e-04   0.0000000e+00  -1.2043054e-05  -2.3110769e-05  -6.5843789e-05  -1.4923777e-05  -2.4026659e-04  -1.5910675e-05  -8.6632482e-05  -1.6028904e-05  -1.6133987e-04   5.6590230e-05   7.8362495e-05  -7.2580577e-05  -3.0939513e-06   1.2796107e-04  -1.0701147e-04   1.3072809e-04  -8.5917975e-05  -1.7222115e-05  -1.8358488e-05   6.8027385e-07   0.0000000e+00  -5.9055038e-05  -1.2803446e-04   5.6015062e-05   5.1502417e-05  -1.4237591e-04  -3.1863592e-05  -2.5443340e-04  -2.0428644e-04   1.8970161e-05   1.0112594e-05   6.4481225e-05   4.4532243e-06  -3.2886138e-05   5.7999978e-05   1.4547695e-05   7.3399882e-05   0.0000000e+00  -1.6429746e-05  -1.0580684e-04   3.1574388e-05   6.5220971e-05  -8.9863607e-05  -1.5959388e-04  -9.8164523e-05  -1.1823439e-04  -2.1653243e-05  -7.1473621e-05   1.9917219e-04   2.9570500e-04  -2.4374918e-05  -1.8662610e-04   5.4556136e-05  -1.0754534e-04   2.6440213e-04   2.4704967e-04   2.7733821e-04   2.9450485e-05   0.0000000e+00   6.4738037e-05   1.0634012e-04   5.0568225e-05  -1.2618470e-04  -2.8318479e-05  -9.8013058e-05  -6.1747892e-05  -5.2085352e-05  -1.3806831e-04   3.1770300e-06  -1.3408349e-04  -1.3150715e-04   2.9030425e-05   1.4940316e-04  -1.1033934e-04  -1.0350346e-05   0.0000000e+00  -1.9964636e-04  -7.9960788e-05   8.6275990e-05  -7.6337243e-05  -2.7600751e-04  -6.0787686e-05  -3.0027129e-04  -5.6244313e-04  -3.0312450e-04  -2.5948030e-04  -6.6301626e-04  -5.9437496e-04  -2.8345048e-04  -2.6796612e-04  -2.0922494e-04  -4.5708976e-04  -1.1010693e-03  -1.0352882e-03  -3.2688576e-04  -3.4514680e-04   0.0000000e+00  -2.9076589e-05  -1.2889447e-04  -4.0177303e-04  -3.2731097e-04  -3.0412590e-04  -2.3944249e-04  -3.6348330e-04  -3.5225584e-04  -5.0289041e-04  -1.7445849e-04  -4.5105980e-04  -3.9683741e-04  -3.9175287e-04  -4.8589675e-04  -2.9834626e-04  -1.7377527e-04   0.0000000e+00  -3.1995228e-04  -3.5710371e-04  -6.4755729e-04  -4.1918112e-04  -3.0157258e-04   1.7626396e-05  -6.7017452e-05  -2.7927463e-04  -2.2744234e-04   3.3159701e-05  -7.2848368e-05  -1.3838921e-04   4.2622285e-05  -6.1347943e-05  -2.9670228e-04  -3.7454149e-05  -7.7697105e-05  -1.5389977e-04  -3.7248544e-05  -4.1756629e-04   0.0000000e+00  -5.6124361e-05  -1.8525719e-04  -1.4285120e-04   3.7922200e-06  -1.5265787e-04  -2.6556127e-05  -2.8963955e-04  -2.5043969e-04   4.0807801e-05  -2.6612020e-04  -5.6613622e-05   2.5463450e-04   9.3793168e-05   4.2360906e-05   8.3218014e-05   5.7231031e-06   0.0000000e+00  -1.5563850e-04  -1.4288582e-04  -7.4994506e-05  -1.5344409e-04   1.1623118e-04   5.8638691e-05   2.7327722e-04   2.1785632e-04   2.0699100e-05   8.0656969e-05   3.8762652e-05  -5.3931866e-05   1.4383081e-04   6.8794712e-05  -6.4482257e-04  -1.4823989e-05   2.7826695e-04   2.6805187e-04  -2.0377036e-04  -6.6843504e-04   0.0000000e+00  -1.8866502e-04  -2.2427441e-04  -1.9675001e-04   3.1573645e-05   9.7351940e-06   8.3723473e-05  -3.9973426e-05   4.1888152e-05  -1.1688879e-05  -5.7699499e-04  -1.0295186e-04   6.8635074e-05   3.4793963e-04   7.2932072e-04  -4.9134890e-05  -4.6856317e-04   0.0000000e+00  -4.7507208e-05   2.2744922e-04   6.8723742e-05  -3.1051890e-04
   9.7009769e-05   7.0525305e-05  -1.2115760e-05  -2.0735220e-05   1.7595147e-05  -3.1240150e-05  -6.8647418e-05  -5.4894438e-05  -6.7325636e-05  -6.7843043e-05  -1.0580963e-05  -6.8552678e-05  -5.1346253e-06  -4.5242788e-05  -3.5848449e-05  -6.5929160e-05   0.0000000e+00   7.0510484e-06  -2.8613332e-05  -1.0859679e-04  -9.0652016e-05   6.8635304e-06  -3.4603588e-05   1.8780052e-05   5.1021715e-05  -9.7106035e-05  -6.9082217e-05  -3.5048093e-05  -1.1089133e-06  -2.7303343e-05  -4.5848231e-05  -1.5091193e-04  -7.5482467e-05   0.0000000e+00  -5.5335301e-05  -2.0527015e-05  -5.0942609e-05  -2.9811283e-05  -1.0964627e-04  -1.1063257e-04  -6.8043580e-05  -7.8203319e-05  -1.8293639e-04  -5.3581446e-05  -1.0712416e-04  -2.2214456e-04  -8.7269297e-05   3.4021737e-05  -1.2813694e-04  -7.3653849e-05  -6.4999849e-05   5.6171975e-05  -2.1245217e-04  -1.4348281e-04   0.0000000e+00  -7.0065421e-05  -1.3890693e-04  -2.2231879e-04  -2.0891694e-04  -2.4982937e-04  -2.0894071e-04  -1.3007751e-04  -2.3026473e-04  -3.8010504e-04   2.7134845e-04  -1.3849562e-05  -3.6072777e-04  -2.7933320e-04  -3.5095694e-04  -2.8244295e-04   1.4247652e-04   0.0000000e+00  -8.0068236e-05  -2.9280906e-04   8.1932519e-05   6.5372715e-05  -1.0742302e-03  -1.0402908e-03  -5.2414198e-04  -8.0673127e-04  -5.4103629e-04   5.6992661e-05  -3.2843085e-04  -5.2517044e-04  -1.2834836e-04  -3.9568306e-04   1.3168886e-03  -1.2303650e-04   1.3914865e-05  -5.9888748e-04   4.3645753e-06   1.3005204e-03   0.0000000e+00   6.5569441e-04   1.1072096e-03   5.5353316e-04  -2.9623114e-04  -3.2670412e-04  -5.6809984e-05   1.1416122e-04  -3.4930420e-04  -9.7286865e-05   1.4358221e-03   7.5968083e-05  -5.8683232e-04  -4.9188345e-04  -8.1237134e-04  -3.9945471e-04   1.1517315e-03   0.0000000e+00  -1.5020284e-04  -6.2139278e-05  -5.0044356e-04  -2.4746059e-04  -8.3949895e-05  -1.1686962e-04  -1.2428632e-04  -1.6143459e-04  -1.0745519e-04  -7.4144539e-05  -7.1265780e-05  -1.1557860e-04  -8.3764686e-05  -1.1987624e-04  -4.7258598e-05  -1.0321186e-04  -1.1869411e-04  -1.3344051e-04  -9.2413996e-05  -1.2409664e-04   0.0000000e+00   6.1060063e-06   3.3882891e-06  -1.2735077e-04  -1.0592269e-04  -7.1622394e-05  -9.8243332e-05  -4.8154485e-05  -4.6184564e-05  -1.8977664e-04   1.4549539e-05  -9.6683763e-05  -1.2355918e-04  -1.0516383e-04  -1.6103736e-04  -1.3776576e-04  -1.2046959e-05   0.0000000e+00  -8.1855377e-05  -1.0536625e-04  -1.1585551e-04  -1.1676775e-04  -1.4435808e-04  -1.2735223e-04  -1.6805287e-04  -2.9985378e-04  -1.7874586e-04  -7.4957443e-05  -3.7883788e-05  -7.0617244e-05  -9.2989908e-05  -1.3814216e-04  -6.5046391e-05  -1.0648462e-04  -1.1330585e-04  -6.5883315e-05  -6.5054963e-05  -1.6765992e-04   0.0000000e+00  -3.5579342e-05  -7.5853224e-05  -1.6176188e-04  -1.1989125e-04  -1.1816156e-04  -8.5685148e-05  -1.4001100e-04  -1.3637433e-04  -1.6565037e-04  -8.9618122e-05  -1.1211071e-04  -9.8617424e-05  -1.3429772e-05  -4.5401750e-05  -1.7620239e-04  -1.0651392e-04   0.0000000e+00  -1.1388602e-04  -7.7550775e-05  -7.6478768e-05  -9.9074483e-05   2.9968575e-05  -4.4153718e-05   1.1381824e-06  -3.7790480e-05   6.2594901e-05  -2.7752248e-05  -1.4334006e-04  -8.3930170e-05  -6.2005835e-05  -7.2834343e-05   1.6114207e-04  -8.0247294e-05  -3.5919705e-05  -7.0603123e-05  -1.7213516e-05   1.0814455e-04   0.0000000e+00   1.2117679e-04   1.7767778e-04  -4.1926443e-05  -5.0875129e-05   8.6296329e-05   1.6752324e-05   4.5629161e-05  -3.7529210e-05  -2.9479094e-05   7.0164518e-05  -6.8656341e-05  -1.0137886e-04  -7.1544124e-05  -1.4100970e-04  -2.5384635e-05   9.1988544e-05   0.0000000e+00  -2.3038441e-05  -5.7566356e-05  -4.9304840e-05  -1.0055680e-04  -7.0254576e-05  -5.6719330e-05  -1.1657052e-04  -5.2426208e-05  -3.8320145e-05  -7.4357461e-05  -1.4775148e-05  -1.0992389e-04  -5.4388816e-05   3.1299527e-05   7.5182560e-05  -1.1101749e-04  -9.3646689e-05  -1.3681076e-04  -6.8122416e-05   2.8535260e-05   0.0000000e+00   8.7317859e-05   6.3501044e-05  -5.7927981e-05  -4.7165484e-05  -3.7298722e-05  -5.0142740e-05  -3.1149943e-05   2.8887450e-05  -6.6076716e-05   5.3611221e-05  -7.8930719e-06  -5.0270536e-06  -7.5558388e-05  -1.4256347e-05   2.4077750e-05   1.2089502e-04   0.0000000e+00  -5.2467105e-06  -2.8463876e-05  -6.8898480e-05  -1.9806830e-05  -2.6367536e-04  -2.3448242e-05  -9.2235275e-05  -2.1517731e-05  -1.8130886e-04   4.9515524e-05   7.1366216e-05  -8.5377303e-05  -1.1853094e-05   1.1867967e-04  -1.2039477e-04   1.1898656e-04  -1.0132362e-04  -2.3928933e-05  -3.2414562e-05  -1.0665197e-05   0.0000000e+00  -6.1718465e-05  -1.4168841e-04   5.1750670e-05   5.7286274e-05  -1.5658524e-04  -3.5929670e-05  -2.8381463e-04  -2.3271249e-04   1.7549353e-05   6.9890598e-06   5.9432535e-05  -4.9571541e-06  -3.8120041e-05   5.8884317e-05   2.6806856e-05   7.4294789e-05   0.0000000e+00  -2.1603328e-05  -1.2052116e-04   2.8860787e-05   5.8025355e-05  -9.1431940e-05  -1.6424222e-04  -8.0933397e-05  -1.0102035e-04  -6.7127839e-06  -5.7431347e-05   2.1462750e-04   3.2315719e-04   2.1525596e-06  -1.7449704e-04   6.2363633e-05  -9.1939404e-05   2.9944426e-04   2.6844487e-04   2.9734983e-04   4.8889268e-05   0.0000000e+00   6.5313024e-05   1.1477773e-04   7.4556647e-05  -1.1484939e-04  -1.4812789e-05  -8.6923942e-05  -5.1331595e-05  -4.7875774e-05  -1.1365050e-04  -6.5952909e-06  -1.1951984e-04  -1.0327113e-04   4.1903494e-05   1.5961136e-04  -8.3596250e-05  -8.1552477e-06   0.0000000e+00  -1.7734151e-04  -8.7327396e-05   9.5098095e-05  -7.7495732e-05  -2.8438871e-04  -5.3288328e-05  -3.0772714e-04  -5.8614907e-04  -3.0959414e-04  -2.6346598e-04  -7.2315834e-04  -6.5762328e-04  -2.9989014e-04  -2.6442826e-04  -2.0511123e-04  -4.4619102e-04  -1.1887517e-03  -1.1153548e-03  -3.7012963e-04  -3.6080853e-04   0.0000000e+00  -3.1193515e-05  -1.3821558e-04  -4.2564499e-04  -3.4809690e-04  -3.0401423e-04  -2.5512152e-04  -3.7137934e-04  -3.6376364e-04  -5.2256899e-04  -1.7787954e-04  -4.6411654e-04  -4.1408862e-04  -4.0497779e-04  -5.1925878e-04  -2.9833515e-04  -1.7603402e-04   0.0000000e+00  -3.3401444e-04  -3.5420022e-04  -6.8834555e-04  -4.4586887e-04  -3.4955082e-04   2.4257667e-05  -6.9931402e-05  -2.8745876e-04  -2.5068422e-04   4.2891968e-05  -8.1310990e-05  -1.6718483e-04   3.9530285e-05  -6.5848248e-05  -3.5164840e-04  -3.2779435e-05  -1.0499651e-04  -1.7256482e-04  -5.7716473e-05  -4.7022159e-04   0.0000000e+00  -7.7207851e-05  -2.2428968e-04  -1.6699425e-04   5.9701189e-06  -1.7057932e-04  -3.8893383e-05  -3.3148126e-04  -2.7160047e-04   4.0172596e-05  -3.1156429e-04  -6.1616550e-05   2.9482512e-04   1.0180960e-04   4.5506352e-05   9.6297040e-05  -1.1153512e-05   0.0000000e+00  -1.5563550e-04  -1.6383737e-04  -7.6688904e-05  -1.6797392e-04   1.5293568e-04   1.1013625e-04   3.5010868e-04   2.7800859e-04   4.7207375e-05   9.0922998e-05   1.4608845e-05  -7.8365081e-05   1.8328458e-04   1.0196012e-04  -7.3100403e-04  -5.2281648e-06   3.0651424e-04   3.0110504e-04  -2.3578309e-04  -7.5799128e-04   0.0000000e+00  -2.2774093e-04  -3.0022420e-04  -2.2300033e-04   7.8439383e-05   3.9174632e-05   1.2019929e-04  -2.1048857e-05   6.4492806e-05   6.9166866e-05  -7.1847049e-04  -9.2570824e-05   1.5516583e-04   4.2510596e-04   8.4612475e-04  -9.2224066e-06  -5.9283301e-04   0.0000000e+00  -3.8673961e-05   2.7333821e-04   1.1137532e-04  -3.1297945e-04
   9.8382051e-05   7.0260099e-05  -9.5052420e-06  -2.6566671e-05   1.9721248e-05  -3.2881753e-05  -6.9052957e-05  -5.2631137e-05  -6.7996043e-05  -6.6577432e-05  -8.2748211e-06  -7.1689090e-05  -5.6479692e-06  -4.9301601e-05  -3.3462992e-05  -6.8683741e-05   0.0000000e+00   8.8659984e-06  -2.7416018e-05  -1.1466195e-04  -1.0076703e-04   7.1895003e-06  -4.0485414e-05   1.8071314e-05   5.3458514e-05  -1.0652711e-04  -6.9869122e-05  -3.5287294e-05  -7.7034107e-08  -2.3054623e-05  -4.0552906e-05  -1.7104267e-04  -8.1134233e-05   0.0000000e+00  -5.7767275e-05  -1.9099255e-05  -4.5155539e-05  -3.0113094e-05  -1.1560033e-04  -1.3907644e-04  -5.1022252e-05  -6.7488685e-05  -1.8760805e-04  -6.1794027e-05  -1.0609104e-04  -2.2464381e-04  -1.0066157e-04   5.2846128e-05  -1.5069756e-04  -8.5453034e-05  -4.5831161e-05   8.1231826e-05  -2.1391194e-04  -1.4639718e-04   0.0000000e+00  -7.4801351e-05  -1.4380346e-04  -2.2441238e-04  -2.3831382e-04  -2.6875355e-04  -2.3208025e-04  -1.3365911e-04  -2.5108596e-04  -4.1763639e-04   3.3345466e-04  -8.1062759e-06  -4.1229365e-04  -3.1071050e-04  -4.0348877e-04  -3.2541855e-04   1.7261084e-04   0.0000000e+00  -8.9552689e-05  -3.0314612e-04   1.0030077e-04   1.1310927e-04  -1.1031526e-03  -1.0345765e-03  -5.5444544e-04  -8.5074115e-04  -5.4210807e-04   8.2912387e-05  -3.0499484e-04  -5.6746168e-04  -1.0931486e-04  -4.0068785e-04   1.3920241e-03  -1.1337624e-04   5.2466845e-05  -6.2275606e-04   6.2815864e-06   1.3518425e-03   0.0000000e+00   6.6324286e-04   1.1226232e-03   5.4918617e-04  -3.0701369e-04  -3.0578612e-04  -4.9342319e-05   1.3114700e-04  -3.6059704e-04  -8.3663987e-05   1.4340280e-03   8.7710562e-05  -5.7862265e-04  -4.9705989e-04  -8.2448319e-04  -3.7523133e-04   1.1536762e-03   0.0000000e+00  -1.7189958e-04  -4.4388379e-05  -5.1183820e-04  -2.4313910e-04  -9.0273241e-05  -1.2184244e-04  -1.2531621e-04  -1.6639882e-04  -1.1085447e-04  -7.4186263e-05  -7.8215319e-05  -1.2542548e-04  -8.7106507e-05  -1.1698996e-04  -4.5574558e-05  -1.0327254e-04  -1.2801250e-04  -1.4210823e-04  -9.7827857e-05  -1.1949951e-04   0.0000000e+00   6.3744608e-06   5.2680858e-06  -1.3014851e-04  -1.1305168e-04  -7.6505800e-05  -1.0397654e-04  -5.3923020e-05  -5.5457043e-05  -1.9420629e-04   1.7298232e-05  -9.6043232e-05  -1.2375655e-04  -1.0716190e-04  -1.5993539e-04  -1.4772241e-04  -1.3337032e-05   0.0000000e+00  -8.0094168e-05  -1.1177811e-04  -1.1664656e-04  -1.1631548e-04  -1.5626740e-04  -1.3802041e-04  -1.7334101e-04  -3.1850194e-04  -1.8002845e-04  -7.7546850e-05  -3.7555658e-05  -6.8296869e-05  -9.8760210e-05  -1.4558147e-04  -7.3222339e-05  -1.1275782e-04  -1.1854820e-04  -6.6472057e-05  -6.1977095e-05  -1.7569051e-04   0.0000000e+00  -3.9375111e-05  -8.1786844e-05  -1.6459822e-04  -1.2499835e-04  -1.2151601e-04  -9.1346813e-05  -1.4253694e-04  -1.3354075e-04  -1.7378269e-04  -9.0350783e-05  -1.1563080e-04  -9.7450189e-05  -5.3734813e-06  -4.2819536e-05  -1.8546034e-04  -1.1106015e-04   0.0000000e+00  -1.1220142e-04  -7.6966037e-05  -7.4872704e-05  -1.0959866e-04   4.1653817e-05  -4.8945835e-05   1.9555641e-05  -2.5788677e-05   8.0338385e-05  -2.9140421e-05  -1.5342529e-04  -8.4824627e-05  -5.9221016e-05  -7.0972481e-05   1.7289483e-04  -8.5427702e-05  -3.5145166e-05  -7.0580774e-05  -1.8480827e-05   1.1435131e-04   0.0000000e+00   1.3080667e-04   1.8885001e-04  -5.0919912e-05  -5.9765683e-05   9.4627611e-05   1.7966687e-05   5.7027617e-05  -3.5870474e-05  -3.4194166e-05   8.0820161e-05  -7.0884495e-05  -1.0155328e-04  -7.4939654e-05  -1.4900515e-04  -2.5622971e-05   1.0117263e-04   0.0000000e+00  -1.9683282e-05  -6.4647658e-05  -4.5871330e-05  -1.0758247e-04  -7.2576358e-05  -5.1336214e-05  -1.1701561e-04  -4.3495636e-05  -3.4675935e-05  -7.4495261e-05  -8.2291053e-06  -1.2067063e-04  -5.4473587e-05   3.3816702e-05   7.8515710e-05  -1.0815231e-04  -9.6746677e-05  -1.4164655e-04  -7.4489275e-05   2.9398486e-05   0.0000000e+00   9.0578343e-05   6.0803864e-05  -5.9907987e-05  -4.0392786e-05  -3.4973006e-05  -4.8149768e-05  -3.1197211e-05   3.2373137e-05  -5.9267451e-05   5.5468358e-05   1.9199300e-06   4.2840221e-06  -7.3308326e-05  -9.0251680e-06   3.3225314e-05   1.2220656e-04   0.0000000e+00   2.4108740e-06  -3.2758471e-05  -6.9803318e-05  -2.3862446e-05  -2.8218031e-04  -3.0639146e-05  -9.4747052e-05  -2.6809361e-05  -1.9756358e-04   4.0136194e-05   6.0066937e-05  -9.6427035e-05  -2.1409282e-05   1.0525886e-04  -1.3228292e-04   1.0291584e-04  -1.1982845e-04  -3.1057804e-05  -4.6815903e-05  -2.3222653e-05   0.0000000e+00  -6.3460832e-05  -1.5284814e-04   4.5141750e-05   6.1244932e-05  -1.6758509e-04  -4.0207932e-05  -3.0795964e-04  -2.5629558e-04   1.4836488e-05   3.1259637e-06   5.3002781e-05  -1.4364200e-05  -4.3234144e-05   5.6794170e-05   3.8109336e-05   7.2387160e-05   0.0000000e+00  -2.6463432e-05  -1.3428652e-04   2.4404672e-05   4.8079724e-05  -9.0725787e-05  -1.6701964e-04  -5.9433786e-05  -7.9982933e-05   1.2119541e-05  -4.0551951e-05   2.2990012e-04   3.5038859e-04   3.1425617e-05  -1.5622101e-04   7.0610260e-05  -7.2361134e-05   3.3887395e-04   2.8690719e-04   3.1664368e-04   7.2007048e-05   0.0000000e+00   6.5226920e-05   1.2293294e-04   9.9581773e-05  -1.0023858e-04   2.4265234e-06  -7.2123550e-05  -3.9041396e-05  -4.0251037e-05  -8.3750379e-05  -1.5827813e-05  -1.0092874e-04  -7.1095023e-05   5.5744408e-05   1.6655426e-04  -5.1959421e-05  -4.5035246e-06   0.0000000e+00  -1.4847285e-04  -9.0675219e-05   1.0073204e-04  -7.5820001e-05  -2.8693465e-04  -4.2002153e-05  -3.1052850e-04  -6.0373162e-04  -3.1256317e-04  -2.6045173e-04  -7.7797296e-04  -7.1646372e-04  -3.1148375e-04  -2.5802908e-04  -1.9675162e-04  -4.2675365e-04  -1.2645854e-03  -1.1850759e-03  -4.1402432e-04  -3.7012810e-04   0.0000000e+00  -3.2881479e-05  -1.4553622e-04  -4.4000701e-04  -3.6034455e-04  -2.9604394e-04  -2.6436420e-04  -3.7373076e-04  -3.7051926e-04  -5.2984783e-04  -1.7668226e-04  -4.6621978e-04  -4.2196099e-04  -4.1101500e-04  -5.4658884e-04  -2.9174856e-04  -1.7474182e-04   0.0000000e+00  -3.4113125e-04  -3.4286885e-04  -7.2196066e-04  -4.6737284e-04  -3.9489362e-04   3.0386144e-05  -7.1622626e-05  -2.9189429e-04  -2.7112458e-04   5.1768619e-05  -9.0871740e-05  -1.9301410e-04   3.5297281e-05  -7.0953888e-05  -4.0333593e-04  -2.9106637e-05  -1.3222997e-04  -1.8951352e-04  -7.7647561e-05  -5.1515648e-04   0.0000000e+00  -9.8779062e-05  -2.6312606e-04  -1.9098753e-04   7.1566597e-06  -1.8753559e-04  -5.2611691e-05  -3.7037062e-04  -2.9069061e-04   3.6228516e-05  -3.5463925e-04  -6.6842465e-05   3.3096721e-04   1.0921137e-04   4.6956742e-05   1.0564047e-04  -3.1711988e-05   0.0000000e+00  -1.5271956e-04  -1.8332477e-04  -7.5785421e-05  -1.7857190e-04   1.9484424e-04   1.7098450e-04   4.3375761e-04   3.4558104e-04   7.9157395e-05   1.0269621e-04  -1.0674275e-05  -1.0438511e-04   2.2747252e-04   1.3975652e-04  -8.1563522e-04   8.8776287e-06   3.3966128e-04   3.3365801e-04  -2.7015107e-04  -8.4792613e-04   0.0000000e+00  -2.6792394e-04  -3.8141094e-04  -2.4824511e-04   1.3052208e-04   7.4039227e-05   1.6007298e-04   4.2359873e-06   8.9368286e-05   1.5994145e-04  -8.6284383e-04  -7.6691250e-05   2.5166831e-04   5.0120590e-04   9.6151254e-04   4.0683270e-05  -7.1863591e-04   0.0000000e+00  -2.4918858e-05   3.1727311e-04   1.5423785e-04  -3.1014794e-04
   9.7102011e-05   6.7288846e-05  -7.3075140e-06  -3.4177830e-05   2.0445055e-05  -3.4663280e-05  -6.8435410e-05  -4.9280729e-05  -6.7992087e-05  -6.4949122e-05  -5.2942408e-06  -7.4643685e-05  -6.5883551e-06  -5.3000634e-05  -3.0484036e-05  -7.0276916e-05   0.0000000e+00   1.0989598e-05  -2.5474066e-05  -1.1976800e-04  -1.1048002e-04   6.8978214e-06  -4.6551933e-05   1.5888905e-05   5.4722454e-05  -1.1576291e-04  -6.9088315e-05  -3.5542092e-05  -4.1487635e-08  -1.8342907e-05  -3.5145621e-05  -1.9017950e-04  -8.5186914e-05   0.0000000e+00  -6.0054930e-05  -1.6682821e-05  -3.8628893e-05  -3.0102706e-05  -1.1981154e-04  -1.6790037e-04  -2.9973337e-05  -5.2965929e-05  -1.9035750e-04  -7.1038046e-05  -1.0596311e-04  -2.2363024e-04  -1.1421792e-04   7.1293090e-05  -1.7531892e-04  -9.8348140e-05  -2.0714866e-05   1.0896438e-04  -2.1170092e-04  -1.5121704e-04   0.0000000e+00  -7.8646242e-05  -1.4703269e-04  -2.2369142e-04  -2.6600051e-04  -2.8588946e-04  -2.5298540e-04  -1.3685116e-04  -2.7100155e-04  -4.5158136e-04   3.9397405e-04  -3.4370929e-06  -4.6394390e-04  -3.4153432e-04  -4.5380284e-04  -3.6510040e-04   2.0089859e-04   0.0000000e+00  -1.0052040e-04  -3.0969176e-04   1.1801780e-04   1.6418755e-04  -1.1065116e-03  -9.9937179e-04  -5.7435429e-04  -8.7982100e-04  -5.3257191e-04   1.0865296e-04  -2.5962238e-04  -6.0096473e-04  -8.1890872e-05  -3.9067149e-04   1.4341602e-03  -9.7885725e-05   9.4596460e-05  -6.3029884e-04   4.5264217e-07   1.3673294e-03   0.0000000e+00   6.4721413e-04   1.0961947e-03   5.3132199e-04  -3.0684240e-04  -2.7475699e-04  -4.1985300e-05   1.5122502e-04  -3.6149412e-04  -6.6215777e-05   1.3905055e-03   9.9393320e-05  -5.4945274e-04  -4.8696495e-04  -8.1233542e-04  -3.4003991e-04   1.1194444e-03   0.0000000e+00  -1.8948041e-04  -1.8896901e-05  -5.1241923e-04  -2.1698297e-04  -9.6587904e-05  -1.2583795e-04  -1.2408164e-04  -1.6924090e-04  -1.1313160e-04  -7.2550626e-05  -8.4305591e-05  -1.3308114e-04  -8.8607300e-05  -1.1204550e-04  -4.2525392e-05  -1.0164547e-04  -1.3607715e-04  -1.4894658e-04  -1.0145249e-04  -1.1194967e-04   0.0000000e+00   6.8846053e-06   7.3085503e-06  -1.3000424e-04  -1.1806656e-04  -8.1030090e-05  -1.0792289e-04  -6.0264442e-05  -6.6212307e-05  -1.9504181e-04   2.0050806e-05  -9.3762364e-05  -1.2197741e-04  -1.0789700e-04  -1.5659299e-04  -1.5529977e-04  -1.4113940e-05   0.0000000e+00  -7.7122061e-05  -1.1709692e-04  -1.1634115e-04  -1.1429359e-04  -1.6824643e-04  -1.4856530e-04  -1.7731458e-04  -3.3369743e-04  -1.7937443e-04  -7.9281174e-05  -3.5825516e-05  -6.4081234e-05  -1.0275899e-04  -1.5137711e-04  -7.9053323e-05  -1.1811138e-04  -1.2289485e-04  -6.5889611e-05  -5.7211707e-05  -1.8017391e-04   0.0000000e+00  -4.2030389e-05  -8.5630369e-05  -1.6433720e-04  -1.2840904e-04  -1.2313401e-04  -9.6066000e-05  -1.4252984e-04  -1.2882650e-04  -1.7959003e-04  -8.7972256e-05  -1.1676964e-04  -9.4260554e-05   3.2936163e-06  -3.9363606e-05  -1.9274892e-04  -1.1365630e-04   0.0000000e+00  -1.0757804e-04  -7.4805429e-05  -7.0748645e-05  -1.1924023e-04   5.2624537e-05  -5.2989908e-05   3.8103786e-05  -1.2474828e-05   9.7162038e-05  -3.0195472e-05  -1.6055166e-04  -8.3575690e-05  -5.5018340e-05  -6.7104353e-05   1.8408917e-04  -8.9063433e-05  -3.4209272e-05  -6.9803233e-05  -1.8687798e-05   1.2046961e-04   0.0000000e+00   1.3925644e-04   1.9845592e-04  -5.8438847e-05  -6.7782598e-05   1.0155363e-04   1.8942996e-05   6.8181522e-05  -3.3163539e-05  -3.8010299e-05   9.1172366e-05  -7.1478084e-05  -9.9041339e-05  -7.7326965e-05  -1.5446678e-04  -2.5414806e-05   1.0902268e-04   0.0000000e+00  -1.5659669e-05  -7.0616116e-05  -4.1964221e-05  -1.1267579e-04  -7.4177923e-05  -4.4952992e-05  -1.1493917e-04  -3.4112625e-05  -3.0253501e-05  -7.2661537e-05  -3.4238838e-08  -1.2834957e-04  -5.3375596e-05   3.5137964e-05   8.1320276e-05  -1.0302770e-04  -9.6847656e-05  -1.4373593e-04  -7.8382865e-05   3.0645496e-05   0.0000000e+00   9.2395789e-05   5.6996386e-05  -5.9490817e-05  -3.1393402e-05  -3.1748749e-05  -4.4699355e-05  -3.1413295e-05   3.4199863e-05  -5.0176039e-05   5.6630935e-05   1.2506835e-05   1.4418940e-05  -6.8227534e-05  -3.3879725e-06   4.2739927e-05   1.2083946e-04   0.0000000e+00   1.0527268e-05  -3.5667714e-05  -6.8650947e-05  -2.6845239e-05  -2.9499577e-04  -3.7067700e-05  -9.3906077e-05  -3.1412864e-05  -2.0919063e-04   2.8986262e-05   4.4915241e-05  -1.0497108e-04  -3.1245471e-05   8.8701567e-05  -1.4213259e-04   8.3554867e-05  -1.4143253e-04  -3.8302103e-05  -6.0688671e-05  -3.6170920e-05   0.0000000e+00  -6.4292265e-05  -1.6092953e-04   3.6724932e-05   6.3251441e-05  -1.7476694e-04  -4.4497524e-05  -3.2572936e-04  -2.7378447e-04   1.1157895e-05  -1.1105442e-06   4.5718296e-05  -2.3220193e-05  -4.8004699e-05   5.1688366e-05   4.8010963e-05   6.8006031e-05   0.0000000e+00  -3.0609856e-05  -1.4640177e-04   1.8247636e-05   3.5920065e-05  -8.7848866e-05  -1.6813939e-04  -3.4780579e-05  -5.5808390e-05   3.4379467e-05  -2.1658413e-05   2.4487972e-04   3.7694445e-04   6.2084176e-05  -1.3256869e-04   7.9309790e-05  -4.9660499e-05   3.8269084e-04   3.0185748e-04   3.3538556e-04   9.8298124e-05   0.0000000e+00   6.4701170e-05   1.3083995e-04   1.2479547e-04  -8.3095332e-05   2.2963365e-05  -5.4228575e-05  -2.5325787e-05  -2.9320424e-05  -4.9686627e-05  -2.3778202e-05  -7.9071023e-05  -3.6719158e-05   6.9811066e-05   1.7003085e-04  -1.6866928e-05   6.0586111e-07   0.0000000e+00  -1.1449808e-04  -8.9671988e-05   1.0253307e-04  -7.1676348e-05  -2.8416350e-04  -2.7854054e-05  -3.0946769e-04  -6.1602409e-04  -3.1289318e-04  -2.5069769e-04  -8.2701815e-04  -7.6994934e-04  -3.1827011e-04  -2.5024447e-04  -1.8525902e-04  -4.0094044e-04  -1.3280182e-03  -1.2443219e-03  -4.5784939e-04  -3.7361346e-04   0.0000000e+00  -3.4180484e-05  -1.5074636e-04  -4.4433171e-04  -3.6331980e-04  -2.8122683e-04  -2.6659089e-04  -3.7156264e-04  -3.7317251e-04  -5.2442398e-04  -1.7116894e-04  -4.5774082e-04  -4.2048123e-04  -4.1054547e-04  -5.6820839e-04  -2.7901062e-04  -1.7001883e-04   0.0000000e+00  -3.4145956e-04  -3.2440018e-04  -7.4877756e-04  -4.8388874e-04  -4.3608551e-04   3.5547395e-05  -7.1895399e-05  -2.9275175e-04  -2.8832127e-04   5.9308849e-05  -1.0140633e-04  -2.1450450e-04   3.0504633e-05  -7.6653637e-05  -4.5035643e-04  -2.6945412e-05  -1.5793023e-04  -2.0416827e-04  -9.6136995e-05  -5.5154843e-04   0.0000000e+00  -1.2004977e-04  -3.0056010e-04  -2.1434148e-04   6.9949814e-06  -2.0331897e-04  -6.7454490e-05  -4.0509072e-04  -3.0778298e-04   2.8686504e-05  -3.9371225e-04  -7.2425034e-05   3.6134268e-04   1.1566493e-04   4.6370747e-05   1.1045646e-04  -5.4945515e-05   0.0000000e+00  -1.4742773e-04  -2.0104393e-04  -7.2576667e-05  -1.8494057e-04   2.4042588e-04   2.3966399e-04   5.2125674e-04   4.1838857e-04   1.1518243e-04   1.1576818e-04  -3.6024031e-05  -1.3177050e-04   2.7499626e-04   1.8034685e-04  -8.9689519e-04   2.6760918e-05   3.7746951e-04   3.6465728e-04  -3.0682146e-04  -9.3679245e-04   0.0000000e+00  -3.0792610e-04  -4.6513589e-04  -2.7252066e-04   1.8552541e-04   1.1296223e-04   2.0188538e-04   3.4632479e-05   1.1539324e-04   2.5674712e-04  -1.0056348e-03  -5.6269158e-05   3.5524105e-04   5.7385101e-04   1.0725978e-03   9.8580502e-05  -8.4186102e-04   0.0000000e+00  -6.6452064e-06   3.5740185e-04   1.9503307e-04  -3.0323468e-04
   9.3140662e-05   6.1480209e-05  -5.8107137e-06  -4.3698565e-05   1.9576976e-05  -3.6748428e-05  -6.6970717e-05  -4.5042633e-05  -6.7567756e-05  -6.3454660e-05  -1.6773400e-06  -7.7707617e-05  -8.1021157e-06  -5.6296100e-05  -2.7089015e-05  -7.0711673e-05   0.0000000e+00   1.3443492e-05  -2.2806673e-05  -1.2406111e-04  -1.1974773e-04   5.9132097e-06  -5.2775587e-05   1.2200556e-05   5.4755719e-05  -1.2493129e-04  -6.6778823e-05  -3.6052607e-05  -1.3113921e-06  -1.3435356e-05  -3.0089578e-05  -2.0800486e-04  -8.7539973e-05   0.0000000e+00  -6.2381977e-05  -1.3355501e-05  -3.1772879e-05  -2.9924242e-05  -1.2261704e-04  -1.9653187e-04  -6.0779595e-06  -3.5668024e-05  -1.9182264e-04  -8.1508368e-05  -1.0741167e-04  -2.1966593e-04  -1.2789765e-04   8.7983867e-05  -2.0204920e-04  -1.1257385e-04   9.3619638e-06   1.3843792e-04  -2.0652855e-04  -1.5927723e-04   0.0000000e+00  -8.1768981e-05  -1.4918972e-04  -2.2121650e-04  -2.9150572e-04  -3.0138278e-04  -2.7137364e-04  -1.4004088e-04  -2.8977297e-04  -4.8167063e-04   4.5018043e-04  -5.1357675e-07  -5.1484946e-04  -3.7109758e-04  -4.9982304e-04  -4.0052876e-04   2.2563106e-04   0.0000000e+00  -1.1321224e-04  -3.1257514e-04   1.3488804e-04   2.1693791e-04  -1.0852845e-03  -9.3686439e-04  -5.8386112e-04  -8.9381691e-04  -5.1409249e-04   1.3293853e-04  -1.9251453e-04  -6.2468633e-04  -4.7110928e-05  -3.6646429e-04   1.4418208e-03  -7.7320420e-05   1.3859943e-04  -6.2049282e-04  -1.3892985e-05   1.3464268e-03   0.0000000e+00   6.0828582e-04   1.0288071e-03   5.0124772e-04  -2.9542203e-04  -2.3528873e-04  -3.5264477e-05   1.7414001e-04  -3.5233798e-04  -4.5916936e-05   1.3085999e-03   1.1032414e-04  -5.0065832e-04  -4.6170306e-04  -7.7620605e-04  -2.9591309e-04   1.0515239e-03   0.0000000e+00  -2.0225102e-04   1.3743699e-05  -5.0225475e-04  -1.6851460e-04  -1.0291809e-04  -1.2896453e-04  -1.2092719e-04  -1.7020941e-04  -1.1448181e-04  -6.9389056e-05  -8.9420517e-05  -1.3830013e-04  -8.8346918e-05  -1.0561051e-04  -3.8204274e-05  -9.8645759e-05  -1.4283142e-04  -1.5395304e-04  -1.0316655e-04  -1.0188975e-04   0.0000000e+00   7.7045429e-06   9.5089512e-06  -1.2698647e-04  -1.2080766e-04  -8.5189600e-05  -1.0998089e-04  -6.7131793e-05  -7.8306009e-05  -1.9240376e-04   2.2656596e-05  -9.0118605e-05  -1.1852817e-04  -1.0763316e-04  -1.5151546e-04  -1.6022789e-04  -1.4311071e-05   0.0000000e+00  -7.3280825e-05  -1.2138402e-04  -1.1533145e-04  -1.1109095e-04  -1.8031341e-04  -1.5917836e-04  -1.8024036e-04  -3.4535685e-04  -1.7730621e-04  -8.0282400e-05  -3.2793242e-05  -5.8372075e-05  -1.0487390e-04  -1.5549896e-04  -8.2277186e-05  -1.2250870e-04  -1.2653991e-04  -6.4185632e-05  -5.1244970e-05  -1.8116794e-04   0.0000000e+00  -4.3470818e-05  -8.7247137e-05  -1.6125245e-04  -1.3017721e-04  -1.2317163e-04  -9.9814042e-05  -1.4014832e-04  -1.2258385e-04  -1.8309694e-04  -8.2509903e-05  -1.1556675e-04  -8.9252843e-05   1.2254547e-05  -3.5339276e-05  -1.9792777e-04  -1.1423216e-04   0.0000000e+00  -1.0032246e-04  -7.1178272e-05  -6.4190260e-05  -1.2778659e-04   6.2019277e-05  -5.6260817e-05   5.5480382e-05   1.2159355e-06   1.1200193e-04  -3.1016864e-05  -1.6448421e-04  -8.0367179e-05  -4.9765153e-05  -6.1578087e-05   1.9474540e-04  -9.1158793e-05  -3.3521248e-05  -6.8675718e-05  -1.7754663e-05   1.2660740e-04   0.0000000e+00   1.4638791e-04   2.0642576e-04  -6.4042923e-05  -7.4581968e-05   1.0674958e-04   1.9628899e-05   7.8459955e-05  -2.9786901e-05  -4.0771539e-05   1.0080868e-04  -7.0529049e-05  -9.4159364e-05  -7.8830426e-05  -1.5747880e-04  -2.4814130e-05   1.1528878e-04   0.0000000e+00  -1.1258513e-05  -7.5315136e-05  -3.8028910e-05  -1.1572688e-04  -7.5247829e-05  -3.7972083e-05  -1.1049640e-04  -2.4742555e-05  -2.5303536e-05  -6.9029630e-05   9.4284396e-06  -1.3260913e-04  -5.1276084e-05   3.5202763e-05   8.3502450e-05  -9.6099638e-05  -9.3993080e-05  -1.4313102e-04  -7.9518371e-05   3.2259837e-05   0.0000000e+00   9.2746538e-05   5.2375320e-05  -5.6641564e-05  -2.0522229e-05  -2.7811121e-05  -3.9961903e-05  -3.1911871e-05   3.4279845e-05  -3.9158641e-05   5.7039778e-05   2.3324503e-05   2.4927214e-05  -6.0695684e-05   2.2787597e-06   5.2391291e-05   1.1696652e-04   0.0000000e+00   1.8665881e-05  -3.6964757e-05  -6.5703445e-05  -2.8611619e-05  -3.0157975e-04  -4.2342099e-05  -8.9609047e-05  -3.4790489e-05  -2.1546434e-04   1.6727007e-05   2.6596094e-05  -1.1035035e-04  -4.0800405e-05   7.0253396e-05  -1.4944640e-04   6.2166453e-05  -1.6588900e-04  -4.5341021e-05  -7.3143490e-05  -4.8571028e-05   0.0000000e+00  -6.4243430e-05  -1.6546909e-04   2.7204693e-05   6.3343271e-05  -1.7768666e-04  -4.8546136e-05  -3.3628592e-04  -2.8424405e-04   6.9685197e-06  -5.2891678e-06   3.8160545e-05  -3.1017913e-05  -5.2210986e-05   4.3709636e-05   5.6251624e-05   6.1705707e-05   0.0000000e+00  -3.3651331e-05  -1.5618193e-04   1.0502065e-05   2.2225304e-05  -8.3004875e-05  -1.6781518e-04  -8.2843277e-06  -2.9234686e-05   5.9384525e-05  -1.6417742e-06   2.5941383e-04   4.0225593e-04   9.2708150e-05  -1.0452924e-04   8.8481189e-05  -2.4783143e-05   4.3060750e-04   3.1284272e-04   3.5369913e-04   1.2707753e-04   0.0000000e+00   6.3959677e-05   1.3851805e-04   1.4942106e-04  -6.4195830e-05   4.6178534e-05  -3.3976684e-05  -1.0655230e-05  -1.5391272e-05  -1.2889061e-05  -2.9759276e-05  -5.4751123e-05  -1.9124679e-06   8.3312995e-05   1.7004867e-04   2.0131396e-05   7.1225971e-06   0.0000000e+00  -7.7075115e-05  -8.4243560e-05   1.0010222e-04  -6.5572730e-05  -2.7691234e-04  -1.2058561e-05  -3.0560087e-04  -6.2408888e-04  -3.1157780e-04  -2.3487438e-04  -8.7014718e-04  -8.1742043e-04  -3.2060643e-04  -2.4261758e-04  -1.7197798e-04  -3.7125410e-04  -1.3792199e-03  -1.2934733e-03  -5.0080906e-04  -3.7216033e-04   0.0000000e+00  -3.5181598e-05  -1.5392912e-04  -4.3870278e-04  -3.5681853e-04  -2.6101317e-04  -2.6161052e-04  -3.6613570e-04  -3.7250769e-04  -5.0667280e-04  -1.6190757e-04  -4.3966571e-04  -4.1025776e-04  -4.0468412e-04  -5.8488306e-04  -2.6089366e-04  -1.6214217e-04   0.0000000e+00  -3.3558222e-04  -3.0052244e-04  -7.6950933e-04  -4.9583281e-04  -4.7187164e-04   3.9297759e-05  -7.0600046e-05  -2.9026838e-04  -3.0202044e-04   6.5124436e-05  -1.1265785e-04  -2.3056069e-04   2.5825438e-05  -8.2820603e-05  -4.9178991e-04  -2.6672833e-05  -1.8069835e-04  -2.1603580e-04  -1.1243609e-04  -5.7927359e-04   0.0000000e+00  -1.4031470e-04  -3.3555969e-04  -2.3663457e-04   5.2020688e-06  -2.1780574e-04  -8.3134925e-05  -4.3466748e-04  -3.2307755e-04   1.7459405e-05  -4.2739891e-04  -7.8444279e-05   3.8455675e-04   1.2082529e-04   4.3521637e-05   1.1022044e-04  -7.9663179e-05   0.0000000e+00  -1.4041616e-04  -2.1684161e-04  -6.7566840e-05  -1.8704763e-04   2.8773458e-04   3.1413860e-04   6.0915545e-04   4.9370084e-04   1.5349561e-04   1.2974040e-04  -6.0523734e-05  -1.6039043e-04   3.2408712e-04   2.2152121e-04  -9.7310870e-04   4.7265115e-05   4.1911283e-04   3.9295824e-04  -3.4565223e-04  -1.0231170e-03   0.0000000e+00  -3.4644651e-04  -5.4859355e-04  -2.9607613e-04   2.4083473e-04   1.5421602e-04   2.4392843e-04   6.8429766e-05   1.4128810e-04   3.5513752e-04  -1.1426044e-03  -3.2650796e-05   4.6256961e-04   6.4082548e-04   1.1765560e-03   1.6174493e-04  -9.5869975e-04   0.0000000e+00   1.5370896e-05   3.9202605e-04   2.3155838e-04  -2.9366944e-04
   8.6597713e-05   5.2850479e-05  -5.2467486e-06  -5.5119646e-05   1.7033601e-05  -3.9271695e-05  -6.4851785e-05  -4.0143361e-05  -6.6974849e-05  -6.2563640e-05   2.4924337e-06  -8.1149412e-05  -1.0303243e-05  -5.9139476e-05  -2.3461787e-05  -7.0050446e-05   0.0000000e+00   1.6219722e-05  -1.9472646e-05  -1.2770304e-04  -1.2853197e-04   4.1964726e-06  -5.9115873e-05   7.0756944e-06   5.3549099e-05  -1.3413434e-04  -6.3053651e-05  -3.7031691e-05  -4.1082868e-06  -8.5858174e-06  -2.5784390e-05  -2.2424906e-04  -8.8199333e-05   0.0000000e+00  -6.4910919e-05  -9.2603638e-06  -2.4978319e-05  -2.9726343e-05  -1.2447197e-04  -2.2449696e-04   1.9219486e-05  -1.6886489e-05  -1.9271727e-04  -9.3368769e-05  -1.1092935e-04  -2.1341404e-04  -1.4170318e-04   1.0157424e-04  -2.3086799e-04  -1.2834313e-04   4.3076287e-05   1.6858141e-04  -1.9924877e-04  -1.7177415e-04   0.0000000e+00  -8.4417956e-05  -1.5099180e-04  -2.1818138e-04  -3.1452887e-04  -3.1546088e-04  -2.8711984e-04  -1.4358032e-04  -3.0712627e-04  -5.0786805e-04   4.9954114e-04   8.2201401e-08  -5.6419762e-04  -3.9864587e-04  -5.3947269e-04  -4.3101163e-04   2.4523131e-04   0.0000000e+00  -1.2777479e-04  -3.1198878e-04   1.5092174e-04   2.6965569e-04  -1.0417957e-03  -8.5091423e-04  -5.8350899e-04  -8.9325346e-04  -4.8873997e-04   1.5460918e-04  -1.0525819e-04  -6.3799563e-04  -6.5810268e-06  -3.2995421e-04   1.4159724e-03  -5.2845656e-05   1.8284689e-04  -5.9302358e-04  -3.6731925e-05   1.2910955e-03   0.0000000e+00   5.4894379e-04   9.2466870e-04   4.6090591e-04  -2.7324271e-04  -1.8954477e-04  -2.9584813e-05   1.9933991e-04  -3.3416588e-04  -2.4063166e-05   1.1943893e-03   1.1970720e-04  -4.3495545e-04  -4.2229115e-04  -7.1771116e-04  -2.4550409e-04   9.5501117e-04   0.0000000e+00  -2.0989788e-04   5.2315995e-05  -4.8188314e-04  -9.8750085e-05  -1.0923338e-04  -1.3131172e-04  -1.1628543e-04  -1.6960901e-04  -1.1511684e-04  -6.4916085e-05  -9.3491394e-05  -1.4096410e-04  -8.6496988e-05  -9.8316664e-05  -3.2773166e-05  -9.4637921e-05  -1.4828873e-04  -1.5721433e-04  -1.0293654e-04  -8.9882421e-05   0.0000000e+00   8.8748134e-06   1.1862046e-05  -1.2129622e-04  -1.2121032e-04  -8.8965833e-05  -1.1011792e-04  -7.4420341e-05  -9.1470772e-05  -1.8653345e-04   2.4929912e-05  -8.5443268e-05  -1.1375552e-04  -1.0665953e-04  -1.4524827e-04  -1.6232678e-04  -1.3912656e-05   0.0000000e+00  -6.8935387e-05  -1.2473556e-04  -1.1403417e-04  -1.0714726e-04  -1.9243665e-04  -1.7003359e-04  -1.8241627e-04  -3.5353997e-04  -1.7439720e-04  -8.0698586e-05  -2.8629465e-05  -5.1692446e-05  -1.0508984e-04  -1.5799105e-04  -8.2821822e-05  -1.2594126e-04  -1.2970502e-04  -6.1446801e-05  -4.4658751e-05  -1.7893552e-04   0.0000000e+00  -4.3716921e-05  -8.6674707e-05  -1.5578931e-04  -1.3042298e-04  -1.2187124e-04  -1.0260481e-04  -1.3568818e-04  -1.1520250e-04  -1.8443532e-04  -7.4191667e-05  -1.1218549e-04  -8.2713290e-05   2.1197444e-05  -3.1069814e-05  -2.0090394e-04  -1.1281553e-04   0.0000000e+00  -9.0894200e-05  -6.6254092e-05  -5.5415360e-05  -1.3508100e-04   6.9029819e-05  -5.8798499e-05   7.0402295e-05   1.4287824e-05   1.2387071e-04  -3.1726168e-05  -1.6515634e-04  -7.5503476e-05  -4.3889758e-05  -5.4856507e-05   2.0485507e-04  -9.1807655e-05  -3.3510480e-05  -6.7626905e-05  -1.5682533e-05   1.3283415e-04   0.0000000e+00   1.5209300e-04   2.1271134e-04  -6.7411016e-05  -7.9886096e-05   1.0997174e-04   1.9976795e-05   8.7256763e-05  -2.6196806e-05  -4.2399668e-05   1.0931434e-04  -6.8234544e-05  -8.7373895e-05  -7.9623571e-05  -1.5826530e-04  -2.3897906e-05   1.1979165e-04   0.0000000e+00  -6.8069116e-06  -7.8659548e-05  -3.4518342e-05  -1.1674503e-04  -7.5959497e-05  -3.0777419e-05  -1.0395462e-04  -1.5781884e-05  -2.0074910e-05  -6.3869315e-05   1.9662582e-05  -1.3332244e-04  -4.8429710e-05   3.4032431e-05   8.4982981e-05  -8.7901505e-05  -8.8425324e-05  -1.4004390e-04  -7.7781471e-05   3.4186568e-05   0.0000000e+00   9.1676851e-05   4.7308531e-05  -5.1472370e-05  -8.2506618e-06  -2.3359003e-05  -3.4171173e-05  -3.2734349e-05   3.2691069e-05  -2.6658973e-05   5.6655655e-05   3.3807371e-05   3.5337062e-05  -5.1265762e-05   7.5866927e-06   6.1938663e-05   1.1089145e-04   0.0000000e+00   2.6375312e-05  -3.6539446e-05  -6.1379280e-05  -2.9137655e-05  -3.0165276e-04  -4.6113819e-05  -8.1910831e-05  -3.6385894e-05  -2.1587850e-04   4.1092640e-06   5.9870461e-06  -1.1204483e-04  -4.9496586e-05   5.1320787e-05  -1.5381411e-04   4.0145620e-05  -1.9269276e-04  -5.1860181e-05  -8.3323098e-05  -5.9428098e-05   0.0000000e+00  -6.3357312e-05  -1.6615531e-04   1.7398427e-05   6.1724841e-05  -1.7608660e-04  -5.2061943e-05  -3.3913288e-04  -2.8710529e-04   2.8185609e-06  -8.9493129e-06   3.0928027e-05  -3.7318930e-05  -5.5655215e-05   3.3182844e-05   6.2766003e-05   5.4216925e-05   0.0000000e+00  -3.5228456e-05  -1.6299991e-04   1.3473274e-06   7.7668438e-06  -7.6469901e-05  -1.6623477e-04   1.8638382e-05  -1.0218985e-06   8.6308690e-05   1.8590673e-05   2.7332840e-04   4.2568853e-04   1.2191868e-04  -7.3252282e-05   9.8162771e-05   1.3159952e-06   4.8205325e-04   3.1958708e-04   3.7166559e-04   1.5753570e-04   0.0000000e+00   6.3222648e-05   1.4598949e-04   1.7280978e-04  -4.4277747e-05   7.1328776e-05  -1.2151841e-05   4.5112198e-06   1.0642082e-06   2.5205962e-05  -3.3170450e-05  -2.8780553e-05   3.1633683e-05   9.5470440e-05   1.6682255e-04   5.7482859e-05   1.4949578e-05   0.0000000e+00  -3.7954314e-05  -7.4575497e-05   9.3334429e-05  -5.8102756e-05  -2.6626180e-04   3.9920269e-06  -3.0018869e-04  -6.2913493e-04  -3.0966338e-04  -2.1403035e-04  -9.0750456e-04  -8.5852621e-04  -3.1914913e-04  -2.3663686e-04  -1.5837863e-04  -3.4041460e-04  -1.4190616e-03  -1.3333642e-03  -5.4207195e-04  -3.6697455e-04   0.0000000e+00  -3.6026468e-05  -1.5535730e-04  -4.2381598e-04  -3.4118630e-04  -2.3716762e-04  -2.4962669e-04  -3.5883888e-04  -3.6937638e-04  -4.7763039e-04  -1.4969573e-04  -4.1352756e-04  -3.9245145e-04  -3.9490255e-04  -5.9776452e-04  -2.3850373e-04  -1.5154011e-04   0.0000000e+00  -3.2446962e-04  -2.7328713e-04  -7.8513692e-04  -5.0380662e-04  -5.0131795e-04   4.1254953e-05  -6.7639075e-05  -2.8472334e-04  -3.1215230e-04   6.8950277e-05  -1.2425115e-04  -2.4043351e-04   2.1978267e-05  -8.9203687e-05  -5.2723684e-04  -2.8491572e-05  -1.9928166e-04  -2.2472254e-04  -1.2599381e-04  -5.9887378e-04   0.0000000e+00  -1.5899967e-04  -3.6732945e-04  -2.5752992e-04   1.6034545e-06  -2.3094574e-04  -9.9336926e-05  -4.5841259e-04  -3.3686171e-04   2.6976345e-06  -4.5463752e-04  -8.4910102e-05   3.9964738e-04   1.2436589e-04   3.8314257e-05   1.0471892e-04  -1.0458412e-04   0.0000000e+00  -1.3241306e-04  -2.3070041e-04  -6.1433401e-05  -1.8511565e-04   3.3454641e-04   3.9195500e-04   6.9374686e-04   5.6842150e-04   1.9200689e-04   1.4405243e-04  -8.3454839e-05  -1.9016014e-04   3.7271482e-04   2.6084430e-04  -1.0428506e-03   6.8882204e-05   4.6322737e-04   4.1739776e-04  -3.8640675e-04  -1.1054702e-03   0.0000000e+00  -3.8227543e-04  -6.2906700e-04  -3.1934071e-04   2.9365568e-04   1.9581855e-04   2.8432851e-04   1.0358861e-04   1.6568332e-04   4.5035667e-04  -1.2699864e-03  -7.4855283e-06   5.7005494e-04   7.0018761e-04   1.2707268e-03   2.2687492e-04  -1.0658396e-03   0.0000000e+00   4.0025420e-05   4.1970253e-04   2.6183111e-04  -2.8298848e-04
   7.7698584e-05   4.1575930e-05  -5.7702506e-06  -6.8280144e-05   1.2841548e-05  -4.2320296e-05  -6.2271887e-05  -3.4823112e-05  -6.6436188e-05  -6.2673436e-05   7.0768890e-06  -8.5183666e-05  -1.3262150e-05  -6.1476543e-05  -1.9780368e-05  -6.8417956e-05   0.0000000e+00   1.9275026e-05  -1.5578487e-05  -1.3084708e-04  -1.3678565e-04   1.7443950e-06  -6.5514489e-05   6.8248664e-07   5.1140683e-05  -1.4343312e-04  -5.8099116e-05  -3.8640431e-05  -8.5391291e-06  -4.0207652e-06  -2.2535245e-05  -2.3868571e-04  -8.7276203e-05   0.0000000e+00  -6.7761280e-05  -4.5951781e-06  -1.8589156e-05  -2.9646634e-05  -1.2591201e-04  -2.5144272e-04   4.4306076e-05   1.9257014e-06  -1.9377737e-04  -1.0672841e-04  -1.1676403e-04  -2.0558996e-04  -1.5567489e-04   1.1084472e-04  -2.6167626e-04  -1.4582281e-04   7.8857202e-05   1.9824608e-04  -1.9078734e-04  -1.8966227e-04   0.0000000e+00  -8.6893330e-05  -1.5321863e-04  -2.1581239e-04  -3.3495094e-04  -3.2840667e-04  -3.0024811e-04  -1.4774836e-04  -3.2275695e-04  -5.3034567e-04   5.3991422e-04  -2.1033397e-06  -6.1122043e-04  -4.2340013e-04  -5.7074568e-04  -4.5614377e-04   2.5840523e-04   0.0000000e+00  -1.4424364e-04  -3.0815739e-04   1.6634332e-04   3.2071240e-04  -9.7954849e-04  -7.4691300e-04  -5.7432461e-04  -8.7924725e-04  -4.5878084e-04   1.7272193e-04  -8.0472819e-07  -6.4059675e-04   3.7589808e-05  -2.8399799e-04   1.3600328e-03  -2.5927567e-05   2.2599641e-04  -5.4826055e-04  -6.7193769e-05   1.2057341e-03   0.0000000e+00   4.7335373e-04   7.9100623e-04   4.1276992e-04  -2.4157522e-04  -1.4007000e-04  -2.5219253e-05   2.2597315e-04  -3.0866269e-04  -2.2010163e-06   1.0561944e-03   1.2668352e-04  -3.5634602e-04  -3.7066482e-04  -6.3970719e-04  -1.9195880e-04   8.3727212e-04   0.0000000e+00  -2.1250015e-04   9.4989079e-05  -4.5230562e-04  -1.0148581e-05  -1.1544344e-04  -1.3293399e-04  -1.1064184e-04  -1.6776982e-04  -1.1524277e-04  -5.9395607e-05  -9.6496225e-05  -1.4108945e-04  -8.3306550e-05  -9.0817162e-05  -2.6454196e-05  -9.0004446e-05  -1.5252728e-04  -1.5889583e-04  -1.0082036e-04  -7.6573479e-05   0.0000000e+00   1.0404701e-05   1.4348922e-05  -1.1325331e-04  -1.1929873e-04  -9.2321525e-05  -1.0836654e-04  -8.1968512e-05  -1.0532294e-04  -1.7777557e-04   2.6658732e-05  -8.0099561e-05  -1.0801981e-04  -1.0526886e-04  -1.3834790e-04  -1.6151325e-04  -1.2960846e-05   0.0000000e+00  -6.4448079e-05  -1.2726992e-04  -1.1286459e-04  -1.0292391e-04  -2.0453203e-04  -1.8125668e-04  -1.8415232e-04  -3.5844577e-04  -1.7123523e-04  -8.0690315e-05  -2.3557628e-05  -4.4658253e-05  -1.0349212e-04  -1.5896823e-04  -8.0811077e-05  -1.2843081e-04  -1.3261688e-04  -5.7789849e-05  -3.8098567e-05  -1.7393393e-04   0.0000000e+00  -4.2881550e-05  -8.4131981e-05  -1.4853122e-04  -1.2932724e-04  -1.1955474e-04  -1.0449202e-04  -1.2957835e-04  -1.0710647e-04  -1.8383378e-04  -6.3432426e-05  -1.0690150e-04  -7.4991377e-05   2.9822831e-05  -2.6872994e-05  -2.0164218e-04  -1.0953687e-04   0.0000000e+00  -7.9877790e-05  -6.0259770e-05  -4.4770373e-05  -1.4102706e-04   7.2970302e-05  -6.0693986e-05   8.1694449e-05   2.5757515e-05   1.3193041e-04  -3.2453406e-05  -1.6267315e-04  -6.9387738e-05  -3.7852976e-05  -4.7483997e-05   2.1437169e-04  -9.1180712e-05  -3.4589924e-05  -6.7070573e-05  -1.2554590e-05   1.3917503e-04   0.0000000e+00   1.5629616e-04   2.1728764e-04  -6.8359537e-05  -8.3496672e-05   1.1107246e-04   1.9949293e-05   9.4035253e-05  -2.2885793e-05  -4.2894301e-05   1.1630212e-04  -6.4880965e-05  -7.9263637e-05  -7.9907872e-05  -1.5716727e-04  -2.2759296e-05   1.2243097e-04   0.0000000e+00  -2.6434347e-06  -8.0630814e-05  -3.1859109e-05  -1.1585572e-04  -7.6454221e-05  -2.3709051e-05  -9.5681925e-05  -7.5419605e-06  -1.4797652e-05  -5.7522812e-05   3.0095513e-05  -1.3059477e-04  -4.5142903e-05   3.1728320e-05   8.5714365e-05  -7.9012216e-05  -8.0568734e-05  -1.3483986e-04  -7.3242449e-05   3.6334117e-05   0.0000000e+00   8.9314395e-05   4.2216435e-05  -4.4234179e-05   4.8597021e-06  -1.8587148e-05  -2.7605858e-05  -3.3844720e-05   2.9669710e-05  -1.3190699e-05   5.5464118e-05   4.3403981e-05   4.5184119e-05  -4.0630561e-05   1.2168712e-05   7.1133139e-05   1.0302556e-04   0.0000000e+00   3.3226049e-05  -3.4405184e-05  -5.6223171e-05  -2.8515769e-05  -2.9520480e-04  -4.8089609e-05  -7.1006975e-05  -3.5647660e-05  -2.1017032e-04  -8.0830367e-06  -1.5920506e-05  -1.0970696e-04  -5.6779866e-05   3.3369961e-05  -1.5491873e-04   1.8920571e-05  -2.2110208e-04  -5.7575583e-05  -9.0449690e-05  -6.7758821e-05   0.0000000e+00  -6.1689644e-05  -1.6285161e-04   8.1799897e-06   5.8752423e-05  -1.6991797e-04  -5.4732476e-05  -3.3414625e-04  -2.8220549e-04  -6.9592673e-07  -1.1638218e-05   2.4593285e-05  -4.1785578e-05  -5.8167346e-05   2.0580322e-05   6.7685760e-05   4.6388499e-05   0.0000000e+00  -3.5041308e-05  -1.6633514e-04  -8.9725193e-06  -6.6424675e-06  -6.8566057e-05  -1.6352925e-04   4.4578422e-05   2.8098041e-05   1.1422598e-04   3.8186971e-05   2.8643133e-04   4.4658622e-04   1.4846375e-04  -3.9972256e-05   1.0839552e-04   2.7730570e-05   5.3620506e-04   3.2200700e-04   3.8931657e-04   1.8880396e-04   0.0000000e+00   6.2697197e-05   1.5328018e-04   1.9448967e-04  -2.3988797e-05   9.7595281e-05   1.0452373e-05   1.9748858e-05   1.9436321e-05   6.3253239e-05  -3.3524059e-05  -1.9263722e-06   6.2408951e-05   1.0557784e-04   1.6075738e-04   9.3744602e-05   2.3977154e-05   0.0000000e+00   1.1336309e-06  -6.1080451e-05   8.2408982e-05  -4.9896244e-05  -2.5344022e-04   1.8830266e-05  -2.9460274e-04  -6.3244197e-04  -3.0818700e-04  -1.8953899e-04  -9.3950847e-04  -8.9323916e-04  -3.1481678e-04  -2.3363643e-04  -1.4595042e-04  -3.1117177e-04  -1.4490734e-03  -1.3652346e-03  -5.8081479e-04  -3.5946332e-04   0.0000000e+00  -3.6879675e-05  -1.5549764e-04  -4.0096959e-04  -3.1733185e-04  -2.1166571e-04  -2.3124660e-04  -3.5109077e-04  -3.6463277e-04  -4.3894919e-04  -1.3551287e-04  -3.8132576e-04  -3.6871653e-04  -3.8294950e-04  -6.0832666e-04  -2.1325139e-04  -1.3877333e-04   0.0000000e+00  -3.0941821e-04  -2.4493095e-04  -7.9686395e-04  -5.0854158e-04  -5.2384888e-04   4.1143999e-05  -6.2966355e-05  -2.7641495e-04  -3.1882553e-04   7.0672505e-05  -1.3571945e-04  -2.4376069e-04   1.9672770e-05  -9.5443848e-05  -5.5681106e-04  -3.2420373e-05  -2.1265806e-04  -2.2995642e-04  -1.3648452e-04  -6.1146617e-04   0.0000000e+00  -1.7569644e-04  -3.9534253e-04  -2.7677416e-04  -3.8357765e-06  -2.4274965e-04  -1.1572283e-04  -4.7593032e-04  -3.4946466e-04  -1.5209040e-05  -4.7473034e-04  -9.1749371e-05   4.0615255e-04   1.2600609e-04   3.0781108e-05   9.4082439e-05  -1.2844132e-04   0.0000000e+00  -1.2416021e-04  -2.4271895e-04  -5.4976193e-05  -1.7959346e-04   3.7851620e-04   4.7039741e-04   7.7132019e-04   6.3930336e-04   2.2846628e-04   1.5800978e-04  -1.0430067e-04  -2.2101371e-04   4.1872234e-04   2.9586516e-04  -1.1050193e-03   8.9880574e-05   5.0800584e-04   4.3688391e-04  -4.2875049e-04  -1.1825271e-03   0.0000000e+00  -4.1435361e-04  -7.0409151e-04  -3.4287060e-04   3.4117937e-04   2.3566523e-04   3.2114614e-04   1.3788520e-04   1.8721221e-04   5.3759425e-04  -1.3846420e-03   1.7392404e-05   6.7397743e-04   7.5036239e-04   1.3527425e-03   2.9028567e-04  -1.1606162e-03   0.0000000e+00   6.5960250e-05   4.3934376e-04   2.8422354e-04  -2.7271051e-04
   6.6780137e-05   2.7988357e-05  -7.4445350e-06  -8.2862746e-05   7.1325749e-06  -4.5921102e-05  -5.9409371e-05  -2.9320280e-05  -6.6121973e-05  -6.4070024e-05   1.1878397e-05  -8.9938373e-05  -1.6993167e-05  -6.3243391e-05  -1.6208418e-05  -6.5998126e-05   0.0000000e+00   2.2521958e-05  -1.1285970e-05  -1.3361677e-04  -1.4444138e-04  -1.4104504e-06  -7.1888412e-05  -6.7257401e-06   4.7609226e-05  -1.5282381e-04  -5.2169248e-05  -4.0970681e-05  -1.4575288e-05   7.8462755e-08  -2.0528549e-05  -2.5112294e-04  -8.4973694e-05   0.0000000e+00  -7.0995050e-05   4.0060306e-07  -1.2882890e-05  -2.9798322e-05  -1.2749881e-04  -2.7714486e-04   6.7515421e-05   1.9261691e-05  -1.9568663e-04  -1.2162488e-04  -1.2488219e-04  -1.9690746e-04  -1.6987341e-04   1.1480270e-04  -2.9427459e-04  -1.6511622e-04   1.1500018e-04   2.2628526e-04  -1.8207341e-04  -2.1357223e-04   0.0000000e+00  -8.9514712e-05  -1.5663605e-04  -2.1528419e-04  -3.5282441e-04  -3.4051847e-04  -3.1091695e-04  -1.5273591e-04  -3.3634228e-04  -5.4945433e-04   5.6971750e-04  -7.3647553e-06  -6.5521291e-04  -4.4458099e-04  -5.9177049e-04  -4.7579944e-04   2.6427502e-04   0.0000000e+00  -1.6252795e-04  -3.0132090e-04   1.8159983e-04   3.6865666e-04  -9.0298889e-04  -6.3149540e-04  -5.5771875e-04  -8.5338849e-04  -4.2650125e-04   1.8661705e-04   1.1667697e-04  -6.3249844e-04   8.2945643e-05  -2.3221911e-04   1.2796240e-03   1.7572699e-06   2.6714919e-04  -4.8725205e-04  -1.0357862e-04   1.0968534e-03   0.0000000e+00   3.8709141e-04   6.3751714e-04   3.5966064e-04  -2.0240162e-04  -8.9621868e-05  -2.2270860e-05   2.5292518e-04  -2.7806035e-04   1.7942432e-05   9.0394951e-04   1.3039292e-04  -2.6993104e-04  -3.0961393e-04  -5.4615764e-04  -1.3872672e-04   7.0740117e-04   0.0000000e+00  -2.1053466e-04   1.3940748e-04  -4.1492853e-04   9.3548160e-05  -1.2139498e-04  -1.3384144e-04  -1.0450222e-04  -1.6502111e-04  -1.1504642e-04  -5.3121529e-05  -9.8457279e-05  -1.3882544e-04  -7.9080409e-05  -8.3735902e-05  -1.9518111e-05  -8.5123827e-05  -1.5567868e-04  -1.5923334e-04  -9.6965130e-05  -6.2652765e-05   0.0000000e+00   1.2269263e-05   1.6933659e-05  -1.0327620e-04  -1.1518417e-04  -9.5199886e-05  -1.0482146e-04  -8.9566851e-05  -1.1938407e-04  -1.6655611e-04   2.7617569e-05  -7.4459678e-05  -1.0166891e-04  -1.0373262e-04  -1.3134455e-04  -1.5780132e-04  -1.1556927e-05   0.0000000e+00  -6.0154144e-05  -1.2911919e-04  -1.1220807e-04  -9.8874516e-05  -2.1646665e-04  -1.9289927e-04  -1.8575319e-04  -3.6040030e-04  -1.6839557e-04  -8.0417856e-05  -1.7844586e-05  -3.7939625e-05  -1.0026767e-04  -1.5861169e-04  -7.6563317e-05  -1.3002831e-04  -1.3548991e-04  -5.3358425e-05  -3.2226278e-05  -1.6678042e-04   0.0000000e+00  -4.1164006e-05  -8.0015966e-05  -1.4016899e-04  -1.2710872e-04  -1.1661023e-04  -1.0556728e-04  -1.2236580e-04  -9.8740442e-05  -1.8160196e-04  -5.0814877e-05  -1.0008227e-04  -6.6485871e-05   3.7858449e-05  -2.3031461e-05  -2.0017210e-04  -1.0462193e-04   0.0000000e+00  -6.7949702e-05  -5.3480007e-05  -3.2714365e-05  -1.4559426e-04   7.3332838e-05  -6.2078194e-05   8.8375298e-05   3.4721738e-05   1.3555485e-04  -3.3323111e-05  -1.5730152e-04  -6.2495905e-05  -3.2114246e-05  -4.0049527e-05   2.2320928e-04  -8.9507643e-05  -3.7114684e-05  -6.7374826e-05  -8.5288287e-06   1.4560935e-04   0.0000000e+00   1.5895812e-04   2.2015596e-04  -6.6850402e-05  -8.5303577e-05   1.1001217e-04   1.9521926e-05   9.8372579e-05  -2.0339627e-05  -4.2328544e-05   1.2144815e-04  -6.0824983e-05  -7.0479306e-05  -7.9897219e-05  -1.5460772e-04  -2.1498627e-05   1.2319546e-04   0.0000000e+00   9.0595075e-07  -8.1270587e-05  -3.0419970e-05  -1.1328998e-04  -7.6813708e-05  -1.7033589e-05  -8.6123543e-05  -2.3458715e-07  -9.6648140e-06  -5.0382455e-05   4.0113283e-05  -1.2474441e-04  -4.1755157e-05   2.8458990e-05   8.5688570e-05  -7.0015844e-05  -7.1006227e-05  -1.2801562e-04  -6.6151709e-05   3.8588057e-05   0.0000000e+00   8.5860564e-05   3.7548273e-05  -3.5293672e-05   1.8188725e-05  -1.3673483e-05  -2.0571078e-05  -3.5121216e-05   2.5592740e-05   6.9702526e-07   5.3473319e-05   5.1614994e-05   5.4046326e-05  -2.9559752e-05   1.5700044e-05   7.9726483e-05   9.3849985e-05   0.0000000e+00   3.8834515e-05  -3.0707827e-05  -5.0862374e-05  -2.6953633e-05  -2.8249752e-04  -4.8056587e-05  -5.7224106e-05  -3.2075068e-05  -1.9834053e-04  -1.9080856e-05  -3.8081399e-05  -1.0318430e-04  -6.2155357e-05   1.7822443e-05  -1.5257797e-04  -1.3139637e-07  -2.5017334e-04  -6.2239476e-05  -9.3876456e-05  -7.2659119e-05   0.0000000e+00  -5.9302807e-05  -1.5560802e-04   4.1302139e-07   5.4900698e-05  -1.5934514e-04  -5.6248766e-05  -3.2158717e-04  -2.6980463e-04  -2.9753722e-06  -1.2945257e-05   1.9662555e-05  -4.4191718e-05  -5.9626729e-05   6.4899381e-06   7.1314344e-05   3.9121411e-05   0.0000000e+00  -3.2875379e-05  -1.6580667e-04  -2.0162011e-05  -2.0204472e-05  -5.9610474e-05  -1.5975360e-04   6.8224080e-05   5.7456312e-05   1.4218944e-04   5.6405874e-05   2.9854353e-04   4.6434673e-04   1.7129441e-04  -5.9311169e-06   1.1924932e-04   5.3668615e-05   5.9202750e-04   3.2023480e-04   4.0664608e-04   2.2001933e-04   0.0000000e+00   6.2565236e-05   1.6044051e-04   2.1420491e-04  -3.8434967e-06   1.2414391e-04   3.3103869e-05   3.4688851e-05   3.9025411e-05   1.0009499e-04  -3.0481511e-05   2.5122075e-05   8.9176937e-05   1.1305876e-04   1.5242470e-04   1.2768855e-04   3.4080025e-05   0.0000000e+00   3.8580311e-05  -4.4375431e-05   6.7792918e-05  -4.1562748e-05  -2.3973627e-04   3.1036267e-05  -2.9024287e-04  -6.3525707e-04  -3.0808330e-04  -1.6302265e-04  -9.6681572e-04  -9.2185783e-04  -3.0872511e-04  -2.3470111e-04  -1.3608254e-04  -2.8612170e-04  -1.4713188e-03  -1.3906424e-03  -6.1625392e-04  -3.5112673e-04   0.0000000e+00  -3.7918595e-05  -1.5498163e-04  -3.7197813e-04  -2.8667553e-04  -1.8652454e-04  -2.0743610e-04  -3.4423757e-04  -3.5906800e-04  -3.9283935e-04  -1.2044924e-04  -3.4539385e-04  -3.4107805e-04  -3.7072971e-04  -6.1824050e-04  -1.8680578e-04  -1.2451512e-04   0.0000000e+00  -2.9196102e-04  -2.1773199e-04  -8.0602814e-04  -5.1085761e-04  -5.3926507e-04   3.8832715e-05  -5.6587209e-05  -2.6564635e-04  -3.2229456e-04   7.0339086e-05  -1.4653702e-04  -2.4058156e-04   1.9563206e-05  -1.0108942e-04  -5.8108605e-04  -3.8285286e-05  -2.2009791e-04  -2.3160234e-04  -1.4381410e-04  -6.1861723e-04   0.0000000e+00  -1.9018200e-04  -4.1935362e-04  -2.9419450e-04  -1.0992449e-05  -2.5327307e-04  -1.3193891e-04  -4.8711686e-04  -3.6120331e-04  -3.5630678e-05  -4.8736413e-04  -9.8809722e-05   4.0413776e-04   1.2553983e-04   2.1075089e-05   7.8787794e-05  -1.5007388e-04   0.0000000e+00  -1.1636187e-04  -2.5307998e-04  -4.9052376e-05  -1.7111818e-04   4.1735516e-04   5.4663372e-04   8.3843673e-04   7.0318458e-04   2.6064195e-04   1.7084661e-04  -1.2275404e-04  -2.5285244e-04   4.5999096e-04   3.2429252e-04  -1.1588898e-03   1.0841732e-04   5.5133604e-04   4.5048964e-04  -4.7223730e-04  -1.2531231e-03   0.0000000e+00  -4.4184830e-04  -7.7160271e-04  -3.6728076e-04   3.8075526e-04   2.7166970e-04   3.5249465e-04   1.6909614e-04   2.0459520e-04   6.1228955e-04  -1.4841727e-03   4.0104910e-05   7.7069300e-04   7.9022819e-04   1.4206600e-03   3.4815705e-04  -1.2411045e-03   0.0000000e+00   9.1664703e-05   4.5028575e-04   2.9758962e-04  -2.6423050e-04
   5.4272291e-05   1.2563193e-05  -1.0233475e-05  -9.8403084e-05   1.3255579e-07  -5.0029682e-05  -5.6413573e-05  -2.3857549e-05  -6.6133203e-05  -6.6899084e-05   1.6635873e-05  -9.5440904e-05  -2.1451967e-05  -6.4368514e-05  -1.2885987e-05  -6.3027879e-05   0.0000000e+00   2.5828674e-05  -6.8094161e-06  -1.3608743e-04  -1.5140199e-04  -5.2009013e-06  -7.8127138e-05  -1.4827344e-05   4.3072692e-05  -1.6221859e-04  -4.5576296e-05  -4.4032736e-05  -2.2044387e-05   3.5864181e-06  -1.9818504e-05  -2.6139465e-04  -8.1571423e-05   0.0000000e+00  -7.4604796e-05   5.4648874e-06  -8.0523682e-06  -3.0257608e-05  -1.2977754e-04  -3.0150008e-04   8.7250787e-05   3.3674295e-05  -1.9901894e-04  -1.3801193e-04  -1.3495786e-04  -1.8801804e-04  -1.8436628e-04   1.1274302e-04  -3.2835240e-04  -1.8623391e-04   1.4977851e-04   2.5162756e-04  -1.7396550e-04  -2.4374997e-04   0.0000000e+00  -9.2582125e-05  -1.6192177e-04  -2.1763602e-04  -3.6835898e-04  -3.5208321e-04  -3.1939827e-04  -1.5862460e-04  -3.4755536e-04  -5.6567913e-04   5.8805621e-04  -1.5815350e-05  -6.9555133e-04  -4.6143324e-04  -6.0087154e-04  -4.9012115e-04   2.6247310e-04   0.0000000e+00  -1.8240599e-04  -2.9170842e-04   1.9734290e-04   4.1231263e-04  -8.1722293e-04  -5.1218476e-04  -5.3536115e-04  -8.1759963e-04  -3.9401256e-04   1.9600849e-04   2.4201483e-04  -6.1397426e-04   1.2684224e-04  -1.7877304e-04   1.1821457e-03   2.8423109e-05   3.0600386e-04  -4.1165174e-04  -1.4343964e-04   9.7259731e-04   0.0000000e+00   2.9675871e-04   4.7558590e-04   3.0461740e-04  -1.5831473e-04  -4.1005823e-05  -2.0682352e-05   2.7885841e-04  -2.4500127e-04   3.4588179e-05   7.4845901e-04   1.3004390e-04  -1.8165127e-04  -2.4266282e-04  -4.4189068e-04  -8.9345723e-05   5.7556876e-04   0.0000000e+00  -2.0483709e-04   1.8280327e-04  -3.7148418e-04   2.0754840e-04  -1.2687954e-04  -1.3399736e-04  -9.8352288e-05  -1.6166473e-04  -1.1467454e-04  -4.6399866e-05  -9.9438280e-05  -1.3444782e-04  -7.4159192e-05  -7.7621922e-05  -1.2265874e-05  -8.0335073e-05  -1.5791668e-04  -1.5851151e-04  -9.1600404e-05  -4.8806963e-05   0.0000000e+00   1.4410017e-05   1.9566428e-05  -9.1855480e-05  -1.0905367e-04  -9.7528504e-05  -9.9633454e-05  -9.6968380e-05  -1.3310747e-04  -1.5335748e-04   2.7584718e-05  -6.8880441e-05  -9.5015147e-05  -1.0228433e-04  -1.2471767e-04  -1.5130155e-04  -9.8500003e-06   0.0000000e+00  -5.6337670e-05  -1.3041791e-04  -1.1239392e-04  -9.5412604e-05  -2.2806874e-04  -2.0492111e-04  -1.8749982e-04  -3.5983156e-04  -1.6640886e-04  -8.0028029e-05  -1.1781181e-05  -3.2220376e-05  -9.5690565e-05  -1.5715886e-04  -7.0574186e-05  -1.3080743e-04  -1.3850560e-04  -4.8312843e-05  -2.7677395e-05  -1.5821862e-04   0.0000000e+00  -3.8843481e-05  -7.4881329e-05  -1.3144823e-04  -1.2401247e-04  -1.1347050e-04  -1.0594974e-04  -1.1469154e-04  -9.0561196e-05  -1.7811440e-04  -3.7050508e-05  -9.2162658e-05  -5.7613140e-05   4.5065973e-05  -1.9769835e-05  -1.9659002e-04  -9.8385745e-05   0.0000000e+00  -5.5832642e-05  -4.6250664e-05  -1.9793792e-05  -1.4881570e-04   6.9833107e-05  -6.3102863e-05   8.9730146e-05   4.0424088e-05   1.3438008e-04  -3.4440535e-05  -1.4945185e-04  -5.5339638e-05  -2.7101325e-05  -3.3142142e-05   2.3124806e-04  -8.7060240e-05  -4.1350200e-05  -6.8828445e-05  -3.8245145e-06   1.5207338e-04   0.0000000e+00   1.6007749e-04   2.2135075e-04  -6.2988782e-05  -8.5286571e-05   1.0685889e-04   1.8687034e-05   9.9991179e-05  -1.8994334e-05  -4.0841046e-05   1.2451919e-04  -5.6467541e-05  -6.1691961e-05  -7.9796494e-05  -1.5105913e-04  -2.0215007e-05   1.2216197e-04   0.0000000e+00   3.5521780e-06  -8.0673771e-05  -3.0484830e-05  -1.0936267e-04  -7.7052511e-05  -1.0928918e-05  -7.5778506e-05   6.0238533e-06  -4.8235028e-06  -4.2862923e-05   4.9104992e-05  -1.1628956e-04  -3.8611418e-05   2.4453627e-05   8.4958254e-05  -6.1461855e-05  -6.0435290e-05  -1.2016730e-04  -5.6923934e-05   4.0818099e-05   0.0000000e+00   8.1574466e-05   3.3743304e-05  -2.5122288e-05   3.1096601e-05  -8.7693960e-06  -1.3380940e-05  -3.6369824e-05   2.0944253e-05   1.4441208e-05   5.0708477e-05   5.8025116e-05   6.1570474e-05  -1.8851152e-05   1.7921550e-05   8.7477049e-05   8.3875170e-05   0.0000000e+00   4.2893065e-05  -2.5713188e-05  -4.5963909e-05  -2.4756257e-05  -2.6405526e-04  -4.5879863e-05  -4.0994987e-05  -2.5245054e-05  -1.8065707e-04  -2.8184623e-05  -5.9477606e-05  -9.2538083e-05  -6.5220342e-05   5.9630271e-06  -1.4675040e-04  -1.5789808e-05  -2.7881547e-04  -6.5667042e-05  -9.3119812e-05  -7.3375597e-05   0.0000000e+00  -5.6259685e-05  -1.4466707e-04  -5.1084918e-06   5.0725164e-05  -1.4474628e-04  -5.6331226e-05  -3.0209092e-04  -2.5057846e-04  -3.4665113e-06  -1.2544186e-05   1.6538235e-05  -4.4446438e-05  -5.9968717e-05  -8.4263377e-06   7.4094477e-05   3.3293102e-05   0.0000000e+00  -2.8618103e-05  -1.6121120e-04  -3.1884347e-05  -3.2186046e-05  -4.9888842e-05  -1.5487806e-04   8.8466762e-05   8.6484312e-05   1.6929737e-04   7.2667414e-05   3.0950298e-04   4.7846415e-04   1.8963713e-04   2.7677379e-05   1.3080626e-04   7.8491195e-05   6.4834121e-04   3.1460344e-04   4.2361160e-04   2.5039884e-04   0.0000000e+00   6.2979489e-05   1.6755477e-04   2.3192775e-04   1.5818556e-05   1.5018545e-04   5.5165752e-05   4.9048055e-05   5.9088748e-05   1.3483276e-04  -2.3861283e-05   5.1775343e-05   1.1103875e-04   1.1751955e-04   1.4250891e-04   1.5839883e-04   4.5141465e-05   0.0000000e+00   7.2998355e-05  -2.5231717e-05   5.0186459e-05  -3.3651066e-05  -2.2639572e-04   3.9353792e-05  -2.8843153e-04  -6.3872130e-04  -3.1013786e-04  -1.3624222e-04  -9.9029885e-04  -9.4496645e-04  -3.0210910e-04  -2.4058803e-04  -1.2996602e-04  -2.6752994e-04  -1.4882711e-03  -1.4113768e-03  -6.4769772e-04  -3.4342592e-04   0.0000000e+00  -3.9316219e-05  -1.5456053e-04  -3.3907934e-04  -2.5108033e-04  -1.6367707e-04  -1.7947890e-04  -3.3946018e-04  -3.5336450e-04  -3.4192785e-04  -1.0563373e-04  -3.0826813e-04  -3.1181325e-04  -3.6019240e-04  -6.2927858e-04  -1.6100224e-04  -1.0951601e-04   0.0000000e+00  -2.7375887e-04  -1.9386410e-04  -8.1402535e-04  -5.1162193e-04  -5.4772472e-04   3.4357971e-05  -4.8550427e-05  -2.5270480e-04  -3.2293109e-04   6.8159087e-05  -1.5616950e-04  -2.3132064e-04   2.2196760e-05  -1.0563412e-04  -6.0100098e-04  -4.5732172e-05  -2.2120593e-04  -2.2966439e-04  -1.4811135e-04  -6.2218180e-04   0.0000000e+00  -2.0242365e-04  -4.3938168e-04  -3.0968559e-04  -1.9580352e-05  -2.6259820e-04  -1.4762694e-04  -4.9215060e-04  -3.7233799e-04  -5.7729134e-05  -4.9260496e-04  -1.0586492e-04   3.9417530e-04   1.2285274e-04   9.4401427e-06   5.9639614e-05  -1.6850470e-04   0.0000000e+00  -1.0963131e-04  -2.6201508e-04  -4.4520032e-05  -1.6047556e-04   4.4900882e-04   6.1791914e-04   8.9218959e-04   7.5722201e-04   2.8649044e-04   1.8177161e-04  -1.3867899e-04  -2.8550662e-04   4.9459713e-04   3.4419842e-04  -1.2041317e-03   1.2270977e-04   5.9097068e-04   4.5752019e-04  -5.1633126e-04  -1.3162891e-03   0.0000000e+00  -4.6419199e-04  -8.3003029e-04  -3.9317607e-04   4.1006480e-04   3.0191732e-04   3.7666275e-04   1.9517714e-04   2.1673169e-04   6.7043691e-04  -1.5669576e-03   5.8871161e-05   8.5684185e-04   8.1916960e-04   1.4731008e-03   3.9679782e-04  -1.3061487e-03   0.0000000e+00   1.1558088e-04   4.5234232e-04   3.0134832e-04  -2.5870719e-04
   4.0672576e-05  -4.1033896e-06  -1.4000373e-05  -1.1431478e-04  -7.8522034e-06  -5.4531250e-05  -5.3397031e-05  -1.8630481e-05  -6.6490904e-05  -7.1149276e-05   2.1034742e-05  -1.0160030e-04  -2.6532561e-05  -6.4775051e-05  -9.9223687e-06  -5.9786545e-05   0.0000000e+00   2.9022640e-05  -2.4117058e-06  -1.3827337e-04  -1.5753592e-04  -9.5290688e-06  -8.4091916e-05  -2.3255381e-05   3.7683490e-05  -1.7143795e-04  -3.8675587e-05  -4.7750612e-05  -3.0629502e-05   6.4407445e-06  -2.0323183e-05  -2.6935405e-04  -7.7399526e-05   0.0000000e+00  -7.8510585e-05   1.0333051e-05  -4.2020793e-06  -3.1057206e-05  -1.3322718e-04  -3.2451626e-04   1.0210211e-04   4.3891684e-05  -2.0419371e-04  -1.5575578e-04  -1.4636919e-04  -1.7946895e-04  -1.9920304e-04   1.0431623e-04  -3.6347471e-04  -2.0908636e-04   1.8157072e-04   2.7335963e-04  -1.6720297e-04  -2.8001862e-04   0.0000000e+00  -9.6336519e-05  -1.6960590e-04  -2.2369982e-04  -3.8189571e-04  -3.6333619e-04  -3.2604563e-04  -1.6539068e-04  -3.5609230e-04  -5.7959242e-04   5.9477236e-04  -2.7380384e-05  -7.3171760e-04  -4.7324651e-04  -5.9662101e-04  -4.9949444e-04   2.5318821e-04   0.0000000e+00  -2.0353655e-04  -2.7952981e-04   2.1439918e-04   4.5084799e-04  -7.2766331e-04  -3.9693142e-04  -5.0905513e-04  -7.7398923e-04  -3.6308078e-04   2.0099743e-04   3.6936437e-04  -5.8553330e-04   1.6664189e-04  -1.2805844e-04   1.0762113e-03   5.2328562e-05   3.4294733e-04  -3.2364612e-04  -1.8374410e-04   8.4212313e-04   0.0000000e+00   2.0953628e-04   3.1742259e-04   2.5070427e-04  -1.1234399e-04   3.0989271e-06  -2.0243757e-05   3.0229797e-04  -2.1239012e-04   4.6017544e-05   6.0065224e-04   1.2495996e-04  -9.7917335e-05  -1.7389184e-04  -3.3232328e-04  -4.7217544e-05   4.5231357e-04   0.0000000e+00  -1.9655987e-04   2.2217213e-04  -3.2393932e-04   3.2633749e-04  -1.3164366e-04  -1.3332110e-04  -9.2629719e-05  -1.5795277e-04  -1.1422390e-04  -3.9530523e-05  -9.9537886e-05  -1.2833807e-04  -6.8897288e-05  -7.2912233e-05  -5.0071495e-06  -7.5921899e-05  -1.5944134e-04  -1.5705194e-04  -8.5028874e-05  -3.5677047e-05   0.0000000e+00   1.6742537e-05   2.2184906e-05  -7.9527440e-05  -1.0115918e-04  -9.9220961e-05  -9.2999349e-05  -1.0390507e-04  -1.4591129e-04  -1.3869549e-04   2.6362321e-05  -6.3682808e-05  -8.8316660e-05  -1.0110556e-04  -1.1887454e-04  -1.4221870e-04  -8.0319352e-06   0.0000000e+00  -5.3215774e-05  -1.3129689e-04  -1.1367602e-04  -9.2884087e-05  -2.3913348e-04  -2.1717452e-04  -1.8962735e-04  -3.5724074e-04  -1.6572955e-04  -7.9643111e-05  -5.6649625e-06  -2.8155629e-05  -9.0108994e-05  -1.5488333e-04  -6.3486548e-05  -1.3086302e-04  -1.4179382e-04  -4.2823749e-05  -2.5018259e-05  -1.4907099e-04   0.0000000e+00  -3.6252364e-05  -6.9406054e-05  -1.2311898e-04  -1.2028755e-04  -1.1058720e-04  -1.0578183e-04  -1.0725103e-04  -8.3019085e-05  -1.7377659e-04  -2.2937902e-05  -8.3611899e-05  -4.8782785e-05   5.1251182e-05  -1.7237670e-05  -1.9105644e-04  -9.1210190e-05   0.0000000e+00  -4.4252292e-05  -3.8947541e-05  -6.6129629e-06  -1.5078538e-04   6.2433325e-05  -6.3919522e-05   8.5368002e-05   4.2310357e-05   1.2832822e-04  -3.5881297e-05  -1.3965204e-04  -4.8433101e-05  -2.3181170e-05  -2.7309394e-05   2.3834518e-04  -8.4125635e-05  -4.7441198e-05  -7.1618572e-05   1.2950371e-06   1.5846555e-04   0.0000000e+00   1.5969405e-04   2.2094234e-04  -5.7015356e-05  -8.3515198e-05   1.0178612e-04   1.7454457e-05   9.8778882e-05  -1.9195207e-05  -3.8620508e-05   1.2539358e-04  -5.2224591e-05  -5.3545209e-05  -7.9786484e-05  -1.4700911e-04  -1.8998909e-05   1.1949464e-04   0.0000000e+00   5.0657512e-06  -7.8974935e-05  -3.2232032e-05  -1.0444942e-04  -7.7109975e-05  -5.4805481e-06  -6.5169132e-05   1.1209999e-05  -3.6884183e-07  -3.5377092e-05   5.6506040e-05  -1.0589843e-04  -3.6039752e-05   1.9977887e-05   8.3631873e-05  -5.3833264e-05  -4.9627834e-05  -1.1195495e-04  -4.6110538e-05   4.2892054e-05   0.0000000e+00   7.6764750e-05   3.1205058e-05  -1.4261171e-05   4.2954920e-05  -3.9885735e-06  -6.3380188e-06  -3.7336802e-05   1.6276457e-05   2.7500319e-05   4.7210643e-05   6.2333586e-05   6.7498573e-05  -9.2595240e-06   1.8657030e-05   9.4162264e-05   7.3599371e-05   0.0000000e+00   4.5191947e-05  -1.9795081e-05  -4.2180347e-05  -2.2299798e-05  -2.4064447e-04  -4.1524737e-05  -2.2832571e-05  -1.4852493e-05  -1.5765002e-04  -3.4811539e-05  -7.9175230e-05  -7.8042934e-05  -6.5686911e-05  -1.1603391e-06  -1.3755192e-04  -2.7060116e-05  -3.0585566e-04  -6.7739277e-05  -8.7897973e-05  -6.9354132e-05   0.0000000e+00  -5.2630734e-05  -1.3045203e-04  -7.7145228e-06   4.6817568e-05  -1.2669760e-04  -5.4746779e-05  -2.7664051e-04  -2.2558948e-04  -1.7081628e-06  -1.0210536e-05   1.5490076e-05  -4.2593317e-05  -5.9189361e-05  -2.3488203e-05   7.6562561e-05   2.9690666e-05   0.0000000e+00  -2.2274672e-05  -1.5253903e-04  -4.3777674e-05  -4.1970858e-05  -3.9616172e-05  -1.4878820e-04   1.0447401e-04   1.1473338e-04   1.9476249e-04   8.6579158e-05   3.1917881e-04   4.8860094e-04   2.0304108e-04   5.9792234e-05   1.4315513e-04   1.0176464e-04   7.0387541e-04   3.0564111e-04   4.4015787e-04   2.7928934e-04   0.0000000e+00   6.4061799e-05   1.7474725e-04   2.4786688e-04   3.4835261e-05   1.7502999e-04   7.6141151e-05   6.2633199e-05   7.8891314e-05   1.6687194e-04  -1.3651976e-05   7.7562687e-05   1.2746948e-04   1.1877046e-04   1.3177501e-04   1.8532052e-04   5.7056035e-05   0.0000000e+00   1.0329443e-04  -4.5301693e-06   3.0472571e-05  -2.6616176e-05  -2.1453358e-04   4.2785192e-05  -2.9032567e-04  -6.4378982e-04  -3.1491255e-04  -1.1098671e-04  -1.0109722e-03  -9.6341909e-04  -2.9624154e-04  -2.5167586e-04  -1.2847753e-04  -2.5719226e-04  -1.5026435e-03  -1.4293542e-03  -6.7459365e-04  -3.3768396e-04   0.0000000e+00  -4.1211533e-05  -1.5506018e-04  -3.0479636e-04  -2.1276423e-04  -1.4482434e-04  -1.4890331e-04  -3.3769198e-04  -3.4807269e-04  -2.8914307e-04  -9.2169151e-05  -2.7252822e-04  -2.8330625e-04  -3.5320003e-04  -6.4316975e-04  -1.3776664e-04  -9.4576955e-05   0.0000000e+00  -2.5649640e-04  -1.7524397e-04  -8.2224011e-04  -5.1170499e-04  -5.4971225e-04   2.7929777e-05  -3.8941597e-05  -2.3785516e-04  -3.2118750e-04   6.4482468e-05  -1.6411015e-04  -2.1674969e-04   2.7975458e-05  -1.0855419e-04  -6.1773302e-04  -5.4252339e-05  -2.1595157e-04  -2.2429105e-04  -1.4970472e-04  -6.2412780e-04   0.0000000e+00  -2.1256252e-04  -4.5567851e-04  -3.2320095e-04  -2.9162965e-05  -2.7081594e-04  -1.6243292e-04  -4.9145930e-04  -3.8303460e-04  -8.0505507e-05  -4.9087877e-04  -1.1263438e-04   3.7727340e-04   1.1793443e-04  -3.8174379e-06   3.7724374e-05  -1.8300070e-04   0.0000000e+00  -1.0444727e-04  -2.6978101e-04  -4.2163425e-05  -1.4854483e-04   4.7183037e-04   6.8177999e-04   9.3043732e-04   7.9911506e-04   3.0432757e-04   1.9004176e-04  -1.5208048e-04  -3.1868971e-04   5.2096843e-04   3.5417613e-04  -1.2408130e-03   1.3116687e-04   6.2473692e-04   4.5760298e-04  -5.6040028e-04  -1.3712792e-03   0.0000000e+00  -4.8111502e-04  -8.7836615e-04  -4.2108073e-04   4.2729322e-04   3.2480102e-04   3.9223069e-04   2.1442487e-04   2.2278962e-04   7.0886737e-04  -1.6321545e-03   7.2157147e-05   9.2958305e-04   8.3712502e-04   1.5093681e-03   4.3292216e-04  -1.3553592e-03   0.0000000e+00   1.3623990e-04   4.4581974e-04   2.9554078e-04  -2.5698844e-04
   2.6518138e-05  -2.1326022e-05  -1.8516728e-05  -1.2991884e-04  -1.6456176e-05  -5.9241234e-05  -5.0431384e-05  -1.3794225e-05  -6.7131766e-05  -7.6644369e-05   2.4718816e-05  -1.0821302e-04  -3.2075301e-05  -6.4385553e-05  -7.3901501e-06  -5.6579200e-05   0.0000000e+00   3.1897676e-05   1.6140849e-06  -1.4012209e-04  -1.6267775e-04  -1.4270303e-05  -8.9618571e-05  -3.1620811e-05   3.1624247e-05  -1.8020851e-04  -3.1847075e-05  -5.1963849e-05  -3.9884834e-05   8.6441595e-06  -2.1834676e-05  -2.7486545e-04  -7.2809845e-05   0.0000000e+00  -8.2561200e-05   1.4761246e-05  -1.3442838e-06  -3.2182591e-05  -1.3822111e-04  -3.4629830e-04   1.1095223e-04   4.8911918e-05  -2.1143414e-04  -1.7462986e-04  -1.5823915e-04  -1.7166745e-04  -2.1440051e-04   8.9556337e-05  -3.9908154e-04  -2.3347396e-04   2.0897297e-04   2.9078555e-04  -1.6234894e-04  -3.2178255e-04   0.0000000e+00  -1.0092919e-04  -1.8002124e-04  -2.3404698e-04  -3.9387353e-04  -3.7445056e-04  -3.3126726e-04  -1.7290666e-04  -3.6169420e-04  -5.9180515e-04   5.9043202e-04  -4.1801937e-05  -7.6330900e-04  -4.7938053e-04  -5.7789022e-04  -5.0450376e-04   2.3714339e-04   0.0000000e+00  -2.2546696e-04  -2.6496355e-04   2.3372715e-04   4.8383159e-04  -6.3968054e-04  -2.9357500e-04  -4.8059482e-04  -7.2470445e-04  -3.3501048e-04   2.0208092e-04   4.9258813e-04  -5.4785414e-04   1.9991098e-04  -8.4381696e-05   9.7101299e-04   7.1886662e-05   3.7908751e-04  -2.2584197e-04  -2.2108918e-04   7.1496209e-04   0.0000000e+00   1.3268860e-04   1.7522185e-04   2.0084348e-04  -6.7758265e-05   4.0316447e-05  -2.0620921e-05   3.2170761e-04  -1.8320419e-04   5.0702024e-05   4.7090823e-04   1.1465262e-04  -2.5205838e-05  -1.0772533e-04  -2.2308941e-04  -1.5344568e-05   3.4786022e-04   0.0000000e+00  -1.8707603e-04   2.5445172e-04  -2.7437739e-04   4.4406091e-04  -1.3540711e-04  -1.3169897e-04  -8.7692958e-05  -1.5407350e-04  -1.1373564e-04  -3.2791006e-05  -9.8885725e-05  -1.2096267e-04  -6.3639607e-05  -6.9896401e-05   1.9619503e-06  -7.2094628e-05  -1.6046384e-04  -1.5519359e-04  -7.7606487e-05  -2.3816371e-05   0.0000000e+00   1.9160948e-05   2.4719962e-05  -6.6842787e-05  -9.1806244e-05  -1.0018411e-04  -8.5156128e-05  -1.1010586e-04  -1.5721464e-04  -1.2309769e-04   2.3798272e-05  -5.9132278e-05  -8.1770875e-05  -1.0031542e-04  -1.1413434e-04  -1.3084273e-04  -6.3154496e-06   0.0000000e+00  -5.0928074e-05  -1.3187523e-04  -1.1621994e-04  -9.1542448e-05  -2.4943768e-04  -2.2940645e-04  -1.9231116e-04  -3.5316978e-04  -1.6671319e-04  -7.9351249e-05   2.1113252e-07  -2.6324238e-05  -8.3924606e-05  -1.5207829e-04  -5.6042814e-05  -1.3030132e-04  -1.4542707e-04  -3.7059855e-05  -2.4705412e-05  -1.4018495e-04   0.0000000e+00  -3.3761886e-05  -6.4339719e-05  -1.1588366e-04  -1.1616999e-04  -1.0840648e-04  -1.0521500e-04  -1.0075398e-04  -7.6538611e-05  -1.6900317e-04  -9.3058674e-06  -7.4904908e-05  -4.0369386e-05   5.6267892e-05  -1.5499574e-05  -1.8379241e-04  -8.3524576e-05   0.0000000e+00  -3.3888334e-05  -3.1975504e-05   6.2036992e-06  -1.5165296e-04   5.1349872e-05  -6.4662992e-05   7.5253019e-05   4.0068200e-05   1.1762036e-04  -3.7681373e-05  -1.2851302e-04  -4.2254383e-05  -2.0637110e-05  -2.3017451e-05   2.4435038e-04  -8.0990662e-05  -5.5394250e-05  -7.5817511e-05   6.5434420e-06   1.6465467e-04   0.0000000e+00   1.5789036e-04   2.1903853e-04  -4.9285234e-05  -8.0140771e-05   9.5059576e-05   1.5854618e-05   9.4797387e-05  -2.1165209e-05  -3.5890254e-05   1.2407124e-04  -4.8499148e-05  -4.6608980e-05  -8.0011445e-05  -1.4292323e-04  -1.7923980e-05   1.1543180e-04   0.0000000e+00   5.2947406e-06  -7.6339655e-05  -3.5721948e-05  -9.8957080e-05  -7.6854521e-05  -6.7902450e-07  -5.4813076e-05   1.5376557e-05   3.6566627e-06  -2.8306248e-05   6.1839413e-05  -9.4343527e-05  -3.4326773e-05   1.5323577e-05   8.1879886e-05  -4.7518037e-05  -3.9377361e-05  -1.0404870e-04  -3.4362573e-05   4.4685361e-05   0.0000000e+00   7.1765214e-05   3.0264527e-05  -3.2931020e-06   5.3189361e-05   5.8974100e-07   2.8116790e-07  -3.7734271e-05   1.2160711e-05   3.9374818e-05   4.3028871e-05   6.4374296e-05   7.1685989e-05  -1.4472647e-06   1.7820035e-05   9.9578602e-05   6.3473433e-05   0.0000000e+00   4.5632708e-05  -1.3410551e-05  -4.0096216e-05  -2.0003288e-05  -2.1324241e-04  -3.5049255e-05  -3.3076208e-06  -7.3889145e-07  -1.3009365e-04  -3.8527753e-05  -9.6388761e-05  -6.0174324e-05  -6.3413699e-05  -2.8071866e-06  -1.2524513e-04  -3.3245679e-05  -3.3012571e-04  -6.8411444e-05  -7.8141608e-05  -6.0288583e-05   0.0000000e+00  -4.8484176e-05  -1.1354303e-04  -6.9125880e-06   4.3760588e-05  -1.0594581e-04  -5.1334793e-05  -2.4652089e-04  -1.9622261e-04   2.6338910e-06  -5.8451942e-06   1.6633885e-05  -3.8804578e-05  -5.7351045e-05  -3.8043406e-05   7.9297539e-05   2.8959996e-05   0.0000000e+00  -1.3972804e-05  -1.3999021e-04  -5.5474928e-05  -4.9095791e-05  -2.8905584e-05  -1.4129082e-04   1.1576437e-04   1.4189419e-04   2.1797476e-04   9.7966843e-05   3.2748000e-04   4.9461330e-04   2.1139350e-04   8.9516740e-05   1.5639891e-04   1.2325810e-04   7.5734333e-04   2.9403450e-04   4.5622111e-04   3.0622345e-04   0.0000000e+00   6.5891502e-05   1.8219478e-04   2.6242492e-04   5.3229675e-05   1.9813130e-04   9.5697187e-05   7.5359606e-05   9.7761947e-05   1.9594322e-04  -1.1614323e-08   1.0212773e-04   1.3833346e-04   1.1685105e-04   1.2099404e-04   2.0829984e-04   6.9728263e-05   0.0000000e+00   1.2872067e-04   1.6794975e-05   9.6428868e-06  -2.0800321e-05  -2.0506226e-04   4.0679297e-05  -2.9682362e-04  -6.5117049e-04  -3.2272221e-04  -8.8954640e-05  -1.0299608e-03  -9.7827867e-04  -2.9234095e-04  -2.6795031e-04  -1.3213920e-04  -2.5630977e-04  -1.5172010e-03  -1.4465028e-03  -6.9655744e-04  -3.3497556e-04   0.0000000e+00  -4.3707652e-05  -1.5730749e-04  -2.7178502e-04  -1.7414915e-04  -1.3131777e-04  -1.1739396e-04  -3.3957700e-04  -3.4359350e-04  -2.3753695e-04  -8.1057803e-05  -2.4063662e-04  -2.5787940e-04  -3.5141114e-04  -6.6147246e-04  -1.1898847e-04  -8.0515963e-05   0.0000000e+00  -2.4176088e-04  -1.6341847e-04  -8.3196985e-04  -5.1195645e-04  -5.4598866e-04   1.9918888e-05  -2.7886564e-05  -2.2133625e-04  -3.1755597e-04   5.9771554e-05  -1.6992733e-04  -1.9793122e-04   3.7120031e-05  -1.0935901e-04  -6.3257551e-04  -6.3218502e-05  -2.0466015e-04  -2.1576859e-04  -1.4908331e-04  -6.2636246e-04   0.0000000e+00  -2.2089060e-04  -4.6868429e-04  -3.3472971e-04  -3.9184257e-05  -2.7801220e-04  -1.7601756e-04  -4.8569165e-04  -3.9333621e-04  -1.0286119e-04  -4.8292012e-04  -1.1880882e-04   3.5477787e-04   1.1088308e-04  -1.8359686e-05   1.4336994e-05  -1.9311012e-04   0.0000000e+00  -1.0112288e-04  -2.7662083e-04  -4.2644993e-05  -1.3625230e-04   4.8471955e-04   7.3619172e-04   9.5197238e-04   8.2729284e-04   3.1297463e-04   1.9503017e-04  -1.6304274e-04  -3.5196543e-04   5.3801664e-04   3.5348437e-04  -1.2693561e-03   1.3252506e-04   6.5073728e-04   4.5072883e-04  -6.0374360e-04  -1.4175772e-03   0.0000000e+00  -4.9264150e-04  -9.1617327e-04  -4.5136982e-04   4.3125651e-04   3.3915837e-04   3.9818919e-04   2.2563365e-04   2.2227232e-04   7.2549719e-04  -1.6796608e-03   7.8797237e-05   9.8681181e-04   8.4459619e-04   1.5295358e-03   4.5391619e-04  -1.3890458e-03   0.0000000e+00   1.5237294e-04   4.3150895e-04   2.8082299e-04  -2.5955279e-04
   1.2357180e-05  -3.8367592e-05  -2.3474388e-05  -1.4448808e-04  -2.5276672e-05  -6.3918779e-05  -4.7546905e-05  -9.4569983e-06  -6.7913410e-05  -8.3058592e-05   2.7314267e-05  -1.1496915e-04  -3.7870543e-05  -6.3128425e-05  -5.3227608e-06  -5.3715511e-05   0.0000000e+00   3.4230077e-05   4.9625496e-06  -1.4151622e-04  -1.6663186e-04  -1.9275018e-05  -9.4523154e-05  -3.9539219e-05   2.5103878e-05  -1.8817248e-04  -2.5474078e-05  -5.6437796e-05  -4.9261687e-05   1.0260810e-05  -2.4035791e-05  -2.7780379e-04  -6.8147793e-05   0.0000000e+00  -8.6543065e-05   1.8543827e-05   5.9124575e-07  -3.3572584e-05  -1.4499825e-04  -3.6701793e-04   1.1305668e-04   4.8079947e-05  -2.2076206e-04  -1.9432819e-04  -1.6948158e-04  -1.6485330e-04  -2.2992100e-04   6.8886208e-05  -4.3449773e-04  -2.5909317e-04   2.3089713e-04   3.0348143e-04  -1.5977101e-04  -3.6805298e-04   0.0000000e+00  -1.0640304e-04  -1.9327592e-04  -2.4895358e-04  -4.0478292e-04  -3.8551401e-04  -3.3549171e-04  -1.8096036e-04  -3.6417463e-04  -6.0291640e-04   5.7624559e-04  -5.8659797e-05  -7.9004775e-04  -4.7928846e-04  -5.4388657e-04  -5.0589510e-04   2.1552695e-04   0.0000000e+00  -2.4766831e-04  -2.4816149e-04   2.5635418e-04   5.1124665e-04  -5.5822472e-04  -2.0927905e-04  -4.5163394e-04  -6.7178205e-04  -3.1055541e-04   2.0011392e-04   6.0570628e-04  -5.0177812e-04   2.2462681e-04  -5.1633528e-05   8.7565299e-04   8.5800997e-05   4.1620837e-04  -1.2114806e-04  -2.5194320e-04   6.0034429e-04   0.0000000e+00   7.3097869e-05   6.0369523e-05   1.5767550e-04  -2.7840462e-05   6.8710297e-05  -2.1400881e-05   3.3559400e-04  -1.6030671e-04   4.7426999e-05   3.6846176e-04   9.8865609e-05   3.0420779e-05  -4.8644380e-05  -1.1970067e-04   3.8678822e-06   2.7152774e-04   0.0000000e+00  -1.7789496e-04   2.7676746e-04  -2.2487774e-04   5.5493638e-04  -1.3788399e-04  -1.2899986e-04  -8.3802651e-05  -1.5014310e-04  -1.1319014e-04  -2.6423322e-05  -9.7636059e-05  -1.1284075e-04  -5.8704507e-05  -6.8703100e-05   8.3804557e-06  -6.8981482e-05  -1.6119242e-04  -1.5327268e-04  -6.9724378e-05  -1.3656602e-05   0.0000000e+00   2.1550810e-05   2.7101560e-05  -5.4339923e-05  -8.1337917e-05  -1.0032631e-04  -7.6367925e-05  -1.1531287e-04  -1.6647779e-04  -1.0708185e-04   1.9803718e-05  -5.5426736e-05  -7.5504455e-05  -9.9974218e-05  -1.1072447e-04  -1.1754044e-04  -4.9213295e-06   0.0000000e+00  -4.9531241e-05  -1.3225492e-04  -1.2009398e-04  -9.1532271e-05  -2.5874919e-04  -2.4126260e-04  -1.9565003e-04  -3.4816519e-04  -1.6958908e-04  -7.9202759e-05   5.5724521e-06  -2.7195944e-05  -7.7567230e-05  -1.4903320e-04  -4.9037761e-05  -1.2922739e-04  -1.4941013e-04  -3.1182943e-05  -2.7051256e-05  -1.3238410e-04   0.0000000e+00  -3.1750514e-05  -6.0445854e-05  -1.1034388e-04  -1.1186845e-04  -1.0732645e-04  -1.0440307e-04  -9.5870665e-05  -7.1496285e-05  -1.6418438e-04   3.0401066e-06  -6.6489923e-05  -3.2687512e-05   6.0026997e-05  -1.4531280e-05  -1.7506775e-04  -7.5774610e-05   0.0000000e+00  -2.5329604e-05  -2.5744526e-05   1.8049530e-05  -1.5160769e-04   3.7036674e-05  -6.5433127e-05   5.9712728e-05   3.3653211e-05   1.0275779e-04  -3.9833541e-05  -1.1669254e-04  -3.7215141e-05  -1.9650781e-05  -2.0620484e-05   2.4912251e-04  -7.7918685e-05  -6.5069821e-05  -8.1374630e-05   1.1633726e-05   1.7049256e-04   0.0000000e+00   1.5479025e-04   2.1578330e-04  -4.0245135e-05  -7.5387320e-05   8.7023232e-05   1.3935039e-05   8.8274223e-05  -2.4984817e-05  -3.2890425e-05   1.2067250e-04  -4.5650436e-05  -4.1341067e-05  -8.0568932e-05  -1.3921928e-04  -1.7045747e-05   1.1027126e-04   0.0000000e+00   4.1774308e-06  -7.2952751e-05  -4.0896312e-05  -9.3295244e-05  -7.6096191e-05   3.5658774e-06  -4.5190697e-05   1.8628287e-05   7.2552198e-06  -2.1979773e-05   6.4753787e-05  -8.2452386e-05  -3.3695739e-05   1.0784219e-05   7.9927503e-05  -4.2786470e-05  -3.0449653e-05  -9.7091185e-05  -2.2386433e-05   4.6093908e-05   0.0000000e+00   6.6911028e-05   3.1151713e-05   7.1965599e-06   6.1308336e-05   4.9246556e-06   6.2444798e-06  -3.7267474e-05   9.1400393e-06   4.9640856e-05   3.8220689e-05   6.4125777e-05   7.4106633e-05   4.0692936e-06   1.5421076e-05   1.0355722e-04   5.3868162e-05   0.0000000e+00   4.4236607e-05  -7.0710441e-06  -4.0186447e-05  -1.8290557e-05  -1.8299166e-04  -2.6605609e-05   1.6985064e-05   1.7085555e-05  -9.8969267e-05  -3.9084260e-05  -1.1052256e-04  -3.9588722e-05  -5.8407635e-05   1.4020495e-06  -1.1023684e-04  -3.3987552e-05  -3.5053373e-04  -6.7717659e-05  -6.4010131e-05  -4.6148969e-05   0.0000000e+00  -4.3887646e-05  -9.4648573e-05  -2.4115989e-06   4.2075120e-05  -8.3368038e-05  -4.6019684e-05  -2.1323557e-04  -1.6410765e-04   9.7353554e-06   5.2025382e-07   1.9925906e-05  -3.3372815e-05  -5.4583667e-05  -5.1511700e-05   8.2869280e-05   3.1545444e-05   0.0000000e+00  -3.9567027e-06  -1.2396606e-04  -6.6614304e-05  -5.3278253e-05  -1.7756212e-05  -1.3213209e-04   1.2222376e-04   1.6779439e-04   2.3852780e-04   1.0686926e-04   3.3435983e-04   4.9659017e-04   2.1492154e-04   1.1617615e-04   1.7063117e-04   1.4295129e-04   8.0750214e-04   2.8058127e-04   4.7174895e-04   3.3094493e-04   0.0000000e+00   6.8514700e-05   1.9011305e-04   2.7617462e-04   7.1172863e-05   2.1912006e-04   1.1366460e-04   8.7250165e-05   1.1513117e-04   2.2209065e-04   1.6734211e-05   1.2522662e-04   1.4386775e-04   1.1201532e-04   1.1089949e-04   2.2757349e-04   8.3070813e-05   0.0000000e+00   1.4890025e-04   3.7813612e-05  -1.1283006e-05  -1.6436498e-05  -1.9864312e-04   3.2777665e-05  -3.0850983e-04  -6.6128672e-04  -3.3360166e-04  -7.1635329e-05  -1.0484304e-03  -9.9076261e-04  -2.9148315e-04  -2.8902079e-04  -1.4107204e-04  -2.6540239e-04  -1.5345750e-03  -1.4646704e-03  -7.1342183e-04  -3.3606634e-04   0.0000000e+00  -4.6845496e-05  -1.6206431e-04  -2.4265683e-04  -1.3773895e-04  -1.2407168e-04  -8.6694189e-05  -3.4543645e-04  -3.4018940e-04  -1.9013548e-04  -7.3138302e-05  -2.1479507e-04  -2.3764845e-04  -3.5617790e-04  -6.8548012e-04  -1.0641617e-04  -6.8125866e-05   0.0000000e+00  -2.3093573e-04  -1.5946407e-04  -8.4436168e-04  -5.1317945e-04  -5.3752051e-04   1.0826884e-05  -1.5539069e-05  -2.0336393e-04  -3.1253407e-04   5.4549572e-05  -1.7330435e-04  -1.7613983e-04   4.9648570e-05  -1.0763751e-04  -6.4679794e-04  -7.1936823e-05  -1.8800474e-04  -2.0451267e-04  -1.4685100e-04  -6.3057253e-04   0.0000000e+00  -2.2781197e-04  -4.7896985e-04  -3.4428454e-04  -4.9005398e-05  -2.8425791e-04  -1.8806979e-04  -4.7567518e-04  -4.0315466e-04  -1.2367118e-04  -4.6972482e-04  -1.2407697e-04   3.2824708e-04   1.0189850e-04  -3.3858491e-05  -9.1033237e-06  -1.9867471e-04   0.0000000e+00  -9.9788724e-05  -2.8275024e-04  -4.6454631e-05  -1.2451340e-04   4.8722178e-04   7.7973308e-04   9.5662295e-04   8.4103327e-04   3.1185759e-04   1.9628453e-04  -1.7166827e-04  -3.8474376e-04   5.4524071e-04   3.4211397e-04  -1.2904962e-03   1.2597956e-04   6.6754335e-04   4.3728424e-04  -6.4561501e-04  -1.4549102e-03   0.0000000e+00  -4.9907863e-04  -9.4357254e-04  -4.8421019e-04   4.2151816e-04   3.4435890e-04   3.9402750e-04   2.2819546e-04   2.1506414e-04   7.1950594e-04  -1.7100499e-03   7.8102150e-05   1.0273200e-03   8.4262260e-04   1.5344779e-03   4.5805284e-04  -1.4081479e-03   0.0000000e+00   1.6302064e-04   4.1063574e-04   2.5843285e-04  -2.6648075e-04
  -1.2806697e-06  -5.4483841e-05  -2.8506006e-05  -1.5729130e-04  -3.3896364e-05  -6.8279426e-05  -4.4737741e-05  -5.6783162e-06  -6.8627294e-05  -8.9937245e-05   2.8462706e-05  -1.2147394e-04  -4.3675535e-05  -6.0947176e-05  -3.7145273e-06  -5.1486391e-05   0.0000000e+00   3.5793595e-05   7.3448045e-06  -1.4228010e-04  -1.6918273e-04  -2.4373849e-05  -9.8609707e-05  -4.6653176e-05   1.8352855e-05  -1.9490401e-04  -1.9921266e-05  -6.0881954e-05  -5.8142424e-05   1.1407949e-05  -2.6530440e-05  -2.7805276e-04  -6.3724236e-05   0.0000000e+00  -9.0196915e-05   2.1532423e-05   1.7425688e-06  -3.5126176e-05  -1.5364718e-04  -3.8689089e-04   1.0809024e-04   4.1132783e-05  -2.3199760e-04  -2.1447606e-04  -1.7888728e-04  -1.5909509e-04  -2.4566465e-04   4.3092346e-05  -4.6895330e-04  -2.8554061e-04   2.4663974e-04   3.1131637e-04  -1.5962181e-04  -4.1751126e-04   0.0000000e+00  -1.1268373e-04  -2.0924942e-04  -2.6838977e-04  -4.1513436e-04  -3.9653451e-04  -3.3913885e-04  -1.8928172e-04  -3.6344644e-04  -6.1347492e-04   5.5393389e-04  -7.7398892e-05  -8.1179312e-04  -4.7253711e-04  -4.9419168e-04  -5.0452053e-04   1.8986957e-04   0.0000000e+00  -2.6956165e-04  -2.2924792e-04   2.8330043e-04   5.3347318e-04  -4.8751239e-04  -1.4998788e-04  -4.2356519e-04  -6.1704537e-04  -2.8988816e-04   1.9624521e-04   7.0334963e-04  -4.4828714e-04   2.3933368e-04  -3.2983822e-05   7.9855456e-04   9.3134014e-05   4.5668146e-04  -1.2651584e-05  -2.7290872e-04   5.0662225e-04   0.0000000e+00   3.6821283e-05  -1.7198938e-05   1.2340830e-04   4.3482141e-06   8.6913084e-05  -2.2139624e-05   3.4260797e-04  -1.4626767e-04   3.5387028e-05   3.0093162e-04   7.7607065e-05   6.3747866e-05  -9.0463921e-07  -2.7131774e-05   8.8141073e-06   2.3119472e-04   0.0000000e+00  -1.7054616e-04   2.8663290e-04  -1.7738295e-04   6.5369609e-04  -1.3880621e-04  -1.2509577e-04  -8.1108879e-05  -1.4620659e-04  -1.1251663e-04  -2.0626048e-05  -9.5964075e-05  -1.0451324e-04  -5.4367589e-05  -6.9292639e-05   1.4045447e-05  -6.6630730e-05  -1.6181861e-04  -1.5160649e-04  -6.1787396e-05  -5.4819803e-06   0.0000000e+00   2.3797913e-05   2.9264774e-05  -4.2515406e-05  -7.0124488e-05  -9.9567322e-05  -6.6918866e-05  -1.1930182e-04  -1.7323670e-04  -9.1143021e-05   1.4367979e-05  -5.2688494e-05  -6.9581791e-05  -1.0008530e-04  -1.0878119e-04  -1.0274389e-04  -4.0540768e-06   0.0000000e+00  -4.9003669e-05  -1.3251928e-04  -1.2527362e-04  -9.2881009e-05  -2.6683723e-04  -2.5230818e-04  -1.9965369e-04  -3.4273922e-04  -1.7444780e-04  -7.9203130e-05   1.0175043e-05  -3.1090149e-05  -7.1468119e-05  -1.4601114e-04  -4.3259142e-05  -1.2774145e-04  -1.5368620e-04  -2.5334330e-05  -3.2199319e-05  -1.2641224e-04   0.0000000e+00  -3.0570968e-05  -5.8436815e-05  -1.0695927e-04  -1.0754957e-04  -1.0767819e-04  -1.0348874e-04  -9.3183447e-05  -6.8194499e-05  -1.5966427e-04   1.3374756e-05  -5.8758329e-05  -2.5965461e-05   6.2495728e-05  -1.4230130e-05  -1.6518968e-04  -6.8395636e-05   0.0000000e+00  -1.9037719e-05  -2.0649385e-05   2.8372593e-05  -1.5087006e-04   2.0154618e-05  -6.6281223e-05   3.9415978e-05   2.3291703e-05   8.4493082e-05  -4.2286650e-05  -1.0485594e-04  -3.3629266e-05  -2.0295905e-05  -2.0334457e-05   2.5254651e-04  -7.5134314e-05  -7.6187005e-05  -8.8126383e-05   1.6298977e-05   1.7582417e-04   0.0000000e+00   1.5055679e-04   2.1135459e-04  -3.0401822e-05  -6.9538947e-05   7.8081376e-05   1.1760206e-05   7.9585896e-05  -3.0582732e-05  -2.9859990e-05   1.1542825e-04  -4.3972379e-05  -3.8060895e-05  -8.1509276e-05  -1.3624170e-04  -1.6397961e-05   1.0434915e-04   0.0000000e+00   1.7478113e-06  -6.9008361e-05  -4.7587975e-05  -8.7848083e-05  -7.4608417e-05   7.4114311e-06  -3.6720751e-05   2.1099824e-05   1.0463189e-05  -1.6657184e-05   6.5050719e-05  -7.1036999e-05  -3.4285887e-05   6.6396471e-06   7.8037813e-05  -3.9779903e-05  -2.3532613e-05  -9.1644132e-05  -1.0893457e-05   4.7043246e-05   0.0000000e+00   6.2517535e-05   3.3971867e-05   1.6651284e-05   6.6933418e-05   9.0034396e-06   1.1372259e-05  -3.5672029e-05   7.6801275e-06   5.7959878e-05   3.2849638e-05   6.1716333e-05   7.4857055e-05   6.9545437e-06   1.1560634e-05   1.0596726e-04   4.5057417e-05   0.0000000e+00   4.1143890e-05  -1.3080591e-06  -4.2766640e-05  -1.7556846e-05  -1.5114462e-04  -1.6434226e-05   3.7448595e-05   3.8425652e-05  -6.5418198e-05  -3.6425117e-05  -1.2119969e-04  -1.7078643e-05  -5.0831539e-05   1.1449672e-05  -9.3047677e-05  -2.9283825e-05  -3.6614332e-04  -6.5757313e-05  -4.5880338e-05  -2.7185078e-05   0.0000000e+00  -3.8909332e-05  -7.4553451e-05   5.8501799e-06   4.2185416e-05  -5.9916591e-05  -3.8820670e-05  -1.7842224e-04  -1.3101289e-04   1.9596444e-05   8.7227495e-06   2.5161712e-05  -2.6687310e-05  -5.1073152e-05  -6.3429669e-05   8.7785925e-05   3.7668968e-05   0.0000000e+00   7.4192462e-06  -1.0505259e-04  -7.6867520e-05  -5.4435170e-05  -6.0375399e-06  -1.2103282e-04   1.2412229e-04   1.9239723e-04   2.5626158e-04   1.1352174e-04   3.3980916e-04   4.9485251e-04   2.1416818e-04   1.3932888e-04   1.8593142e-04   1.6101137e-04   8.5321851e-04   2.6614371e-04   4.8670684e-04   3.5340733e-04   0.0000000e+00   7.1936914e-05   1.9876136e-04   2.8978510e-04   8.8958214e-05   2.3781956e-04   1.3004006e-04   9.8423103e-05   1.3057577e-04   2.4563239e-04   3.6120804e-05   1.4671356e-04   1.4463836e-04   1.0472056e-04   1.0213471e-04   2.4372921e-04   9.7000098e-05   0.0000000e+00   1.6381867e-04   5.7639909e-05  -3.1333568e-05  -1.3637088e-05  -1.9565195e-04   1.9222760e-05  -3.2560242e-04  -6.7427329e-04  -3.4732554e-04  -6.0196971e-05  -1.0675342e-03  -1.0021679e-03  -2.9453295e-04  -3.1416094e-04  -1.5498029e-04  -2.8432558e-04  -1.5570736e-03  -1.4855146e-03  -7.2524971e-04  -3.4136024e-04   0.0000000e+00  -5.0604125e-05  -1.6996542e-04  -2.1981542e-04  -1.0595169e-04  -1.2352595e-04  -5.8503957e-05  -3.5528259e-04  -3.3800754e-04  -1.4975607e-04  -6.9054278e-05  -1.9681391e-04  -2.2437923e-04  -3.6845708e-04  -7.1610003e-04  -1.0154122e-04  -5.8137184e-05   0.0000000e+00  -2.2511332e-04  -1.6393489e-04  -8.6036400e-04  -5.1610767e-04  -5.2540996e-04   1.2305257e-06  -2.0849693e-06  -1.8413884e-04  -3.0659216e-04   4.9361610e-05  -1.7406869e-04  -1.5277134e-04   6.5364716e-05  -1.0310022e-04  -6.6153829e-04  -7.9695560e-05  -1.6695097e-04  -1.9105114e-04  -1.4368205e-04  -6.3810187e-04   0.0000000e+00  -2.3380087e-04  -4.8717990e-04  -3.5188582e-04  -5.7962416e-05  -2.8960293e-04  -1.9831935e-04  -4.6237073e-04  -4.1227318e-04  -1.4186348e-04  -4.5247743e-04  -1.2815616e-04   2.9931259e-04   9.1269389e-05  -5.0015420e-05  -3.1145586e-05  -1.9981689e-04   0.0000000e+00  -1.0039440e-04  -2.8833458e-04  -5.3881641e-05  -1.1418477e-04   4.7957775e-04   8.1167891e-04   9.4525821e-04   8.4051454e-04   3.0106940e-04   1.9358103e-04  -1.7802071e-04  -4.1628154e-04   5.4276786e-04   3.2082302e-04  -1.3052070e-03   1.1124970e-04   6.7435128e-04   4.1804507e-04  -6.8525270e-04  -1.4832422e-03   0.0000000e+00  -5.0098772e-04  -9.6119162e-04  -5.1952369e-04   3.9845051e-04   3.4035714e-04   3.7979592e-04   2.2214438e-04   2.0146055e-04   6.9142785e-04  -1.7245001e-03   6.9928500e-05   1.0509217e-03   8.3273240e-04   1.5258463e-03   4.4464316e-04  -1.4141197e-03   0.0000000e+00   1.6761469e-04   3.8478009e-04   2.3009678e-04  -2.7745657e-04
