   4.8397477e-05   1.0819850e-05   4.0165419e-05  -1.8653341e-06   8.4896231e-05   1.9682031e-06  -1.5363709e-04  -2.6670596e-04  -3.8404280e-05  -2.6242912e-05  -8.6895326e-05  -6.9903847e-05  -5.9245742e-05  -1.8677554e-04  -1.3360610e-04  -7.7012470e-05  -4.3817515e-05  -2.0344916e-05  -2.2649542e-05  -2.1041028e-05  -4.1080989e-06   3.6269348e-05   2.8268709e-05   2.4178504e-05  -2.7147744e-05  -3.7354119e-05  -1.1643126e-05  -2.0294364e-05  -9.2852448e-05  -9.8228780e-05   7.1188018e-05   1.1533360e-05  -1.2250979e-05  -5.2082594e-05  -4.7525239e-05  -8.6189809e-05  -7.5366734e-05   7.8099426e-05  -1.1447981e-04  -9.4361042e-05  -1.4097520e-04  -1.2284744e-04  -1.0607049e-04  -9.9250492e-05   1.7127704e-04   1.2961079e-04  -1.0377685e-04  -1.6987838e-04  -8.4559589e-05  -8.8535834e-05   1.8918539e-06   2.5171352e-04   1.9194770e-04  -1.1165596e-04  -6.8346716e-06  -5.5914448e-05  -7.6768034e-05  -1.2895419e-04  -7.3573913e-05  -1.3050059e-04  -7.1713930e-05  -1.6769662e-04  -1.3619660e-04  -5.7960238e-05  -9.3871627e-05  -1.2500919e-04   8.3291221e-05   1.1913546e-05  -2.3281908e-04  -8.2445358e-05  -4.5091684e-05  -1.2953073e-05   5.7953155e-05   1.4035884e-04   1.5291707e-05  -1.9045180e-04   4.5441375e-04   2.1616355e-04   1.5409339e-03   1.5546885e-03   1.0116432e-03  -6.8635548e-04   2.4227639e-03   5.1737150e-04   4.1111578e-04  -8.6080830e-04  -1.1506893e-03  -1.7836988e-03   4.3728504e-04   1.7095632e-03   2.3366083e-03   8.3825415e-05  -1.0435534e-03  -9.1439870e-04  -4.9368227e-04  -1.2332440e-03  -3.8091883e-04   1.3214924e-03   2.5325668e-06   8.2510729e-04   4.5757705e-04  -6.1645895e-05  -1.0365023e-04  -1.2097593e-05   1.5403860e-03   1.4397877e-03   1.7213796e-03   1.7479300e-04   1.7457959e-04  -2.1753780e-04   4.3634593e-04   2.1460398e-03   1.1283753e-03   3.3816076e-04  -1.0511672e-05  -4.9445640e-05  -6.0239565e-05  -9.0570432e-05   2.1134832e-05  -4.1334067e-05   4.9112476e-06  -3.5709675e-05  -9.4928750e-05  -9.4117294e-05  -1.2601535e-04  -9.8614186e-05  -5.9494718e-05  -4.3132143e-05   2.3051619e-05  -1.4961447e-04  -7.1912910e-05  -3.9433356e-05  -5.7495411e-05  -7.2119621e-05  -5.1135731e-05  -6.1533432e-05  -1.5595060e-05  -9.5009161e-05  -1.1246716e-04  -7.5550206e-05  -6.3287380e-05  -8.9249172e-05   5.1796226e-05   3.0388549e-05   1.2176478e-04  -3.2834899e-06  -1.1356175e-05  -5.9294712e-05   4.7277688e-05   4.1249794e-05   3.4692400e-05  -1.7396835e-05  -1.1676763e-04  -1.4225584e-04  -1.0782954e-04  -1.9494513e-04  -3.4086337e-05  -8.7263117e-05  -1.7530298e-04  -1.4579340e-04  -1.7623185e-04  -1.2445677e-04  -1.5921221e-04  -1.5528870e-04  -1.6443956e-04  -2.4668360e-04  -2.4329166e-04  -1.9178759e-04  -4.6839291e-05  -3.6950569e-05  -8.5619735e-05  -1.0767517e-04  -2.5019129e-05  -4.7187887e-05  -1.7923091e-05  -1.1826333e-04  -6.1902533e-05  -4.7616023e-05  -4.5104770e-05  -5.1681444e-05  -3.5019665e-05  -3.8458341e-06   1.2320328e-05  -1.3639628e-05  -3.1601253e-06  -2.9329354e-05  -1.8769881e-05  -1.1072853e-04  -9.3515083e-05  -2.9322507e-05  -7.7589860e-05  -7.4091286e-05  -1.0292429e-04  -1.5034553e-04  -4.9399917e-05  -5.7379673e-05  -1.0917305e-04  -4.6174033e-05  -1.0332374e-04  -1.0193845e-04  -1.4594324e-04  -8.5971650e-05  -3.8143878e-05  -9.0308387e-05  -1.5511044e-04  -2.0789497e-04  -8.1792903e-05  -4.7701625e-05  -6.5369020e-05  -1.0249593e-04  -7.1587254e-05  -9.5629473e-05  -4.4290973e-05  -1.2920524e-04  -1.1389957e-04  -8.1237455e-05  -6.8993697e-05  -8.1789451e-05  -6.2060320e-05  -7.1808579e-05  -7.2051876e-05  -4.8084000e-05  -3.2556265e-05  -3.6051550e-05  -4.3130828e-05  -1.0983491e-04  -3.5202257e-05   1.8558438e-06  -8.3514042e-05  -8.1515949e-05   2.2247298e-06  -1.6518738e-04   2.5739573e-06  -1.2026032e-04  -2.4579897e-04  -3.6043952e-04  -1.3161811e-04  -1.1673696e-04  -2.4838414e-04  -1.5972726e-04  -8.3758697e-05  -2.2399480e-04  -9.8277812e-05  -1.4411608e-04  -1.5553934e-04  -7.3209090e-05  -8.6822251e-05  -3.1603122e-05   7.8372674e-06   8.6793487e-05   3.4711806e-05   8.0035235e-05  -1.1242616e-06  -2.9206264e-05  -1.2042489e-04  -3.5878193e-05  -9.3836283e-05  -1.8235209e-04   1.4304186e-04   1.2156064e-05  -1.5254397e-05  -9.8113549e-05  -8.7193177e-05  -1.0637055e-04  -1.3708519e-04   1.2902682e-04   3.1976272e-05   2.1287823e-05   4.0081770e-05   2.6425756e-05   7.5324063e-05  -1.8145109e-05  -8.2808917e-05   3.1070404e-05  -4.2477774e-05   1.2044480e-05  -9.3702232e-05  -5.0242916e-05   1.2547952e-04  -6.4201953e-06  -5.7219334e-05  -6.7315848e-05  -5.4185672e-05  -3.9536488e-05  -2.3462259e-05  -5.2063916e-05  -6.9288169e-05   3.5081874e-05  -1.1108588e-05   3.1144118e-05  -4.8173477e-05  -7.3322004e-05  -5.5402189e-05  -4.6764094e-05  -7.4117458e-06   8.1870381e-05   1.9032398e-04  -1.6907930e-05  -3.8223936e-05  -2.8014538e-05   4.1019439e-06  -2.1557040e-05  -3.7570497e-06   8.4897656e-05  -1.0118255e-04  -2.1722065e-04  -1.5064406e-04  -2.4002086e-04  -1.8743667e-05  -5.6091274e-05  -3.9846203e-04  -5.4903852e-05  -1.1826826e-04  -2.1829941e-04  -2.4020446e-04  -1.3939180e-04  -1.7216482e-04  -2.3344894e-04  -3.1194961e-04  -2.9581483e-04  -2.1448123e-04  -1.2297717e-04  -6.1900183e-05  -1.4137613e-04  -1.0259473e-04  -1.0769738e-04  -7.2314759e-05  -2.1132734e-04  -4.7506900e-05  -9.2529317e-05  -7.7746319e-05  -9.2894809e-05   3.1278859e-04   1.7742410e-03   9.8480909e-04  -4.2308730e-05  -1.9723222e-05   3.6053946e-06   4.1204431e-04   7.6376894e-04   6.2587487e-05   1.3763386e-04   9.9565599e-05   5.2719901e-05   1.0561733e-04   8.8425470e-05   8.7250354e-05   6.8745813e-05  -1.6187368e-04  -1.5002285e-04   5.0782424e-05   1.0534652e-04   7.1579295e-05   7.4825099e-05  -4.2397572e-05  -9.7374961e-05  -2.0191071e-04   2.0180732e-05   8.3095617e-05   7.3419341e-05   4.4411906e-05   8.4619990e-05   9.2826210e-05   7.3248285e-05   8.9940896e-05   9.1026109e-05   9.4232449e-06   7.2857034e-05   7.1459310e-05   5.9314633e-05  -1.6002082e-04  -3.2892015e-04  -1.7632872e-04   2.3207377e-05   3.2171193e-05   3.9096684e-07  -1.2489765e-04  -2.4680096e-04  -3.8432694e-06   7.8453984e-05  -8.3347462e-05   8.2301455e-05  -2.5586155e-04  -1.1883427e-04  -2.5265599e-04  -2.5061350e-05  -6.4675756e-05   4.8620587e-04  -4.3965362e-05  -5.9146280e-05   2.0883407e-04   1.6193084e-04   3.0129105e-04   3.9744967e-04  -2.1810315e-04  -8.6480982e-05  -1.2568397e-04  -2.8339172e-04   1.0525476e-04   7.6660060e-05   2.4265030e-05  -5.7891925e-05  -1.1581440e-04   6.1428265e-05  -3.7598945e-05   3.4711366e-05  -1.2945188e-04   1.7368505e-06   6.5300543e-05   4.7584464e-04   3.2409988e-04  -1.6034791e-04  -2.0561838e-04   2.2959401e-04  -9.2958047e-05   2.4496236e-04   5.5945597e-05   2.8330041e-04
   4.0733919e-05   2.6174685e-07   3.0137601e-05  -1.7480893e-05   8.4460981e-05  -8.9753260e-06  -1.7597873e-04  -2.9606243e-04  -5.6020373e-05  -4.1361258e-05  -1.1508016e-04  -9.2430805e-05  -6.5803004e-05  -2.1228811e-04  -1.6033163e-04  -1.0462168e-04  -5.8726211e-05  -3.5568806e-05  -3.9192640e-05  -4.1775569e-05  -2.0179875e-05   2.7874076e-05   2.1591093e-05   1.0256945e-05  -4.4520798e-05  -5.5245481e-05  -2.7656845e-05  -3.5156140e-05  -1.1047801e-04  -1.1593952e-04   7.1761349e-05   5.1499561e-06  -1.8611013e-05  -6.5657768e-05  -6.1146821e-05  -1.0927276e-04  -9.1254271e-05   8.0910749e-05  -1.4040383e-04  -1.0486766e-04  -1.8795615e-04  -1.4880098e-04  -1.4424113e-04  -1.0772763e-04   1.9658587e-04   1.7831389e-04  -1.2309408e-04  -1.8889950e-04  -8.5283541e-05  -8.2559429e-05   1.6988717e-05   2.9724498e-04   2.1335910e-04  -1.3097632e-04   2.6796333e-06  -6.3452854e-05  -8.6477245e-05  -1.3981186e-04  -7.8919866e-05  -1.6165268e-04  -8.5943700e-05  -1.9744342e-04  -1.5356552e-04  -6.4061546e-05  -1.0849114e-04  -1.3423248e-04   9.8689587e-05   1.7603796e-05  -2.6936723e-04  -1.0174271e-04  -5.8628579e-05  -3.7200606e-06   7.0147343e-05   1.6014890e-04   1.5812435e-05  -2.1963047e-04   5.7698698e-04   2.9177493e-04   1.7157618e-03   1.7899610e-03   1.1293882e-03  -7.5798542e-04   2.8607086e-03   9.1802097e-04   4.9857739e-04  -1.0092244e-03  -1.2750445e-03  -1.9575986e-03   5.1129131e-04   2.0490018e-03   2.8567049e-03   4.4375406e-05  -1.2246468e-03  -1.0353301e-03  -5.3557275e-04  -1.3475503e-03  -4.2353062e-04   1.4318777e-03  -1.1337402e-05   9.0120279e-04   4.8931769e-04  -7.4881011e-05  -1.3101419e-04  -2.3934423e-05   1.8626565e-03   1.8532614e-03   2.0915356e-03   1.9122523e-04   1.8848250e-04  -2.2739408e-04   6.6500447e-04   2.5710951e-03   1.2585045e-03   3.0866976e-04  -2.6280060e-05  -6.0261757e-05  -7.9233426e-05  -1.1192136e-04   6.9951443e-06  -5.6073018e-05  -1.1557204e-05  -4.0478704e-05  -1.1245773e-04  -1.1535241e-04  -1.5136210e-04  -1.1807644e-04  -6.5297009e-05  -4.8271505e-05   2.1554630e-06  -1.8112606e-04  -8.9099893e-05  -5.6888306e-05  -7.3557673e-05  -9.4311354e-05  -6.4624689e-05  -8.3065361e-05  -2.7749942e-05  -1.1527030e-04  -1.2931145e-04  -8.6490979e-05  -7.8008720e-05  -1.0103661e-04   4.3507820e-05   3.8529281e-05   1.1776885e-04  -7.0680093e-06  -1.4375695e-05  -6.5835125e-05   4.7281183e-05   3.1015009e-05   2.8524612e-05  -1.7014582e-05  -1.3569249e-04  -1.6068649e-04  -1.2303699e-04  -2.1668780e-04  -4.0928906e-05  -1.0120695e-04  -1.8526403e-04  -1.4740524e-04  -1.9602224e-04  -1.3741900e-04  -1.7605892e-04  -1.7368783e-04  -1.8036005e-04  -2.6992177e-04  -2.6615845e-04  -2.1086192e-04  -4.8565231e-05  -3.8795375e-05  -9.7354164e-05  -1.1972151e-04  -2.6996121e-05  -4.7223259e-05  -1.9310428e-05  -1.2288824e-04  -6.0189827e-05  -5.0620174e-05  -4.8415075e-05  -5.4478697e-05  -4.6511383e-05   1.1442005e-05   8.4398894e-06  -1.2070345e-05  -9.0522977e-07  -3.3160738e-05  -1.6679588e-05  -1.2609742e-04  -1.0600840e-04  -3.4710560e-05  -9.7583744e-05  -8.5834234e-05  -1.2743175e-04  -1.7311374e-04  -6.9089234e-05  -6.7419544e-05  -1.2522644e-04  -3.3288263e-05  -1.1630288e-04  -1.1538864e-04  -1.6308956e-04  -9.2970187e-05  -3.5522919e-05  -8.9480294e-05  -1.8441564e-04  -2.3562336e-04  -9.0919000e-05  -6.1318130e-05  -7.7255487e-05  -1.1874586e-04  -8.3569446e-05  -1.1578010e-04  -5.5781199e-05  -1.4959436e-04  -1.2944267e-04  -8.9737574e-05  -8.3430440e-05  -8.9581645e-05  -7.5583668e-05  -6.9511495e-05  -9.1065639e-05  -6.0337735e-05  -4.0822744e-05  -3.6516930e-05  -5.1752235e-05  -1.3191869e-04  -4.1116754e-05   1.0770872e-05  -1.1262297e-04  -1.0503852e-04  -7.6520807e-06  -2.0690097e-04  -2.1122687e-06  -1.4296073e-04  -2.6373333e-04  -3.8595473e-04  -1.4763520e-04  -1.4090010e-04  -3.0410760e-04  -1.9401608e-04  -9.7884023e-05  -2.3871671e-04  -9.9489925e-05  -1.7577875e-04  -1.7968083e-04  -9.8641792e-05  -1.2102830e-04  -5.4302640e-05  -3.2613037e-06   8.2890416e-05   2.9599791e-05   6.6464104e-05  -9.3359073e-06  -4.4271556e-05  -1.4275633e-04  -5.4787548e-05  -9.9605498e-05  -1.8818293e-04   1.3667813e-04  -2.7212470e-06  -2.2847768e-05  -1.1561702e-04  -9.4799412e-05  -1.1511048e-04  -1.5127983e-04   1.0972851e-04   2.2012822e-05   1.4329896e-05   3.7145642e-05   1.5648128e-05   7.1181728e-05  -2.4639210e-05  -7.4679597e-05   6.4780972e-05  -4.7049175e-05   1.0919566e-05  -1.0616946e-04  -5.8573119e-05   1.4170875e-04   1.1403365e-05  -4.3597362e-05  -6.9979330e-05  -6.2882728e-05  -4.7849034e-05  -3.0068644e-05  -6.4312329e-05  -8.4150269e-05   2.5293171e-05  -2.0546487e-05   1.8413643e-05  -5.5850924e-05  -8.7496513e-05  -6.8853186e-05  -5.9718662e-05   2.1533574e-06   1.0647321e-04   2.0357814e-04  -2.7760733e-05  -4.5959968e-05  -3.0353529e-05   1.1929935e-05  -1.0742660e-05  -4.5910960e-07   7.6429416e-05  -1.2281083e-04  -2.4349283e-04  -1.6257635e-04  -2.6270125e-04  -2.9181589e-05  -6.4998971e-05  -4.6861742e-04  -4.3464592e-05  -1.1889840e-04  -2.2463489e-04  -2.6414924e-04  -1.5901166e-04  -1.9209198e-04  -2.6752621e-04  -3.9627781e-04  -3.1614227e-04  -2.2944784e-04  -1.3410185e-04  -7.5953575e-05  -1.6026033e-04  -1.1824661e-04  -1.2140636e-04  -8.2990750e-05  -2.2797778e-04  -4.1904326e-05  -1.0090088e-04  -9.0446659e-05  -9.5771337e-05   3.0255824e-04   2.0676278e-03   1.0712830e-03  -5.0392832e-05  -2.1796213e-05   2.5427992e-06   4.7358506e-04   8.4762371e-04   4.9984859e-05   1.3272734e-04   9.8501538e-05   5.2609481e-05   1.0611307e-04   8.7069608e-05   8.4109043e-05   6.4592349e-05  -1.9050094e-04  -1.5557107e-04   5.1353979e-05   1.0619050e-04   6.8330174e-05   6.7737916e-05  -4.4842730e-05  -1.0779724e-04  -2.3533266e-04   8.6870497e-06   8.2570821e-05   6.3608578e-05   3.3695202e-05   7.7963129e-05   9.8895792e-05   7.1800499e-05   9.0714048e-05   1.0030468e-04   9.6663909e-06   7.6040319e-05   6.9072160e-05   6.1079561e-05  -1.8027514e-04  -3.6359455e-04  -2.0858175e-04   1.9654410e-05   3.3401452e-05   2.1712132e-07  -1.4201789e-04  -2.8491742e-04  -1.8155000e-05   8.5365177e-05  -6.7737667e-05   1.1782708e-04  -2.6924809e-04  -1.0452803e-04  -2.6404260e-04  -1.2449663e-05  -6.3472578e-05   5.2079725e-04  -3.3232168e-05  -4.4186111e-05   2.7035052e-04   2.0525434e-04   3.4899176e-04   4.5399029e-04  -2.1686757e-04  -6.7354505e-05  -1.2218315e-04  -2.8604481e-04   1.4120491e-04   1.1054343e-04   4.6128649e-05  -4.5104910e-05  -1.1520821e-04   9.2828061e-05  -2.4337203e-05   5.1916254e-05  -1.2998914e-04   1.8192909e-05   6.6812738e-05   5.0531611e-04   3.5774569e-04  -1.6183991e-04  -2.2422973e-04   2.6416404e-04  -1.0378635e-04   2.5017533e-04   6.6589639e-05   3.3416640e-04
   2.9883615e-05  -1.2550988e-05   1.7166797e-05  -3.5654737e-05   8.0909422e-05  -2.1950825e-05  -1.9559544e-04  -3.1979716e-04  -7.5131829e-05  -5.8099245e-05  -1.4472486e-04  -1.1630542e-04  -7.1553944e-05  -2.3510117e-04  -1.8557751e-04  -1.3383435e-04  -7.4571023e-05  -5.2469826e-05  -5.7705576e-05  -6.5281166e-05  -3.8698970e-05   1.7190239e-05   1.2766398e-05  -6.5877848e-06  -6.3481328e-05  -7.4653475e-05  -4.5808903e-05  -5.1798434e-05  -1.2679202e-04  -1.3217154e-04   7.0160432e-05  -2.5921483e-06  -2.5471272e-05  -7.9624419e-05  -7.4912210e-05  -1.3202217e-04  -1.0647123e-04   8.1163324e-05  -1.6584556e-04  -1.1271966e-04  -2.3485908e-04  -1.7179902e-04  -1.8426228e-04  -1.1225504e-04   2.2393967e-04   2.3594262e-04  -1.3873846e-04  -2.0091856e-04  -7.9782997e-05  -6.9087537e-05   3.9402726e-05   3.4814517e-04   2.3429362e-04  -1.4460123e-04   1.6035612e-05  -6.9576597e-05  -9.3606919e-05  -1.4585493e-04  -8.2101376e-05  -1.9291654e-04  -9.9705774e-05  -2.2520764e-04  -1.6714089e-04  -6.8498668e-05  -1.2180004e-04  -1.3954590e-04   1.1441940e-04   3.0116866e-05  -2.9973418e-04  -1.2140280e-04  -7.3318916e-05   8.6215771e-06   8.3723969e-05   1.8037768e-04   1.7641067e-05  -2.4386993e-04   7.0052331e-04   3.7658168e-04   1.8529038e-03   2.0037610e-03   1.2259024e-03  -8.2013874e-04   3.3236705e-03   1.4182295e-03   5.8452700e-04  -1.1506779e-03  -1.3769342e-03  -2.0960181e-03   5.8416567e-04   2.4009057e-03   3.4221729e-03  -6.7172708e-06  -1.4061732e-03  -1.1432025e-03  -5.6521780e-04  -1.4393553e-03  -4.5853963e-04   1.5122391e-03  -2.8216983e-05   9.6177631e-04   5.0689637e-04  -8.7523839e-05  -1.5499913e-04  -3.8052691e-05   2.2130578e-03   2.3107036e-03   2.4815214e-03   2.0772661e-04   2.0310514e-04  -2.3091221e-04   9.4640075e-04   3.0284923e-03   1.3766411e-03   2.4552900e-04  -4.3792506e-05  -7.0858993e-05  -9.8176054e-05  -1.3252469e-04  -9.5086691e-06  -7.1286226e-05  -2.9399930e-05  -4.4135626e-05  -1.2838402e-04  -1.3534703e-04  -1.7514926e-04  -1.3683973e-04  -6.9584141e-05  -5.2753098e-05  -2.1489135e-05  -2.1001781e-04  -1.0559999e-04  -7.5120761e-05  -8.9851212e-05  -1.1695724e-04  -7.8147257e-05  -1.0441909e-04  -4.0809761e-05  -1.3457381e-04  -1.4354451e-04  -9.6122593e-05  -9.2051613e-05  -1.1100126e-04   3.1980951e-05   4.6562509e-05   1.0847859e-04  -1.0938082e-05  -1.7034402e-05  -7.1558310e-05   4.5339531e-05   1.7831831e-05   2.0349655e-05  -1.6842280e-05  -1.5226545e-04  -1.7637997e-04  -1.3568046e-04  -2.3411366e-04  -4.6260447e-05  -1.1361242e-04  -1.9065338e-04  -1.4438582e-04  -2.1193697e-04  -1.4666355e-04  -1.8918111e-04  -1.8881244e-04  -1.9373995e-04  -2.8943839e-04  -2.8483804e-04  -2.2485817e-04  -4.7867069e-05  -3.8456872e-05  -1.0771154e-04  -1.2846243e-04  -2.7352210e-05  -4.4747858e-05  -1.9567732e-05  -1.2316750e-04  -5.4751974e-05  -5.1573074e-05  -4.8996130e-05  -5.4713952e-05  -5.9451088e-05   2.9411402e-05   2.3543291e-06  -8.8120506e-06   2.6457657e-06  -3.6806959e-05  -1.3954702e-05  -1.4115297e-04  -1.1741848e-04  -3.9024956e-05  -1.1797565e-04  -9.6804652e-05  -1.5130344e-04  -1.9357948e-04  -8.9786453e-05  -7.6886353e-05  -1.3858090e-04  -1.6128953e-05  -1.2698862e-04  -1.2652663e-04  -1.7729420e-04  -9.8048500e-05  -3.0683640e-05  -8.4505588e-05  -2.1156259e-04  -2.5885630e-04  -9.8373861e-05  -7.5315523e-05  -8.8366833e-05  -1.3362338e-04  -9.4654959e-05  -1.3479409e-04  -6.7459587e-05  -1.6809489e-04  -1.4272327e-04  -9.6295808e-05  -9.7280304e-05  -9.5216817e-05  -8.9151400e-05  -6.4773850e-05  -1.1019744e-04  -7.2439543e-05  -4.8881760e-05  -3.6120917e-05  -6.0470903e-05  -1.5315740e-04  -4.6851462e-05   2.0743898e-05  -1.4179640e-04  -1.2843981e-04  -1.9839579e-05  -2.4845742e-04  -7.2918774e-06  -1.6384831e-04  -2.7627694e-04  -4.0319689e-04  -1.6001250e-04  -1.6360867e-04  -3.5825381e-04  -2.2609674e-04  -1.1087583e-04  -2.4921863e-04  -9.8152593e-05  -2.0592782e-04  -2.0084163e-04  -1.2537066e-04  -1.5706050e-04  -7.8625977e-05  -1.5618048e-05   7.4355063e-05   2.2458395e-05   4.7243192e-05  -1.9342736e-05  -5.9819797e-05  -1.6350938e-04  -7.5223101e-05  -1.0333236e-04  -1.8977291e-04   1.2048971e-04  -2.1495371e-05  -3.1342252e-05  -1.3243288e-04  -1.0114041e-04  -1.2299730e-04  -1.6491901e-04   8.0919255e-05   9.4227021e-06   5.8229963e-06   3.2526158e-05   2.6033949e-06   6.4219635e-05  -3.1986552e-05  -6.0673962e-05   1.0371525e-04  -5.0750590e-05   8.8005453e-06  -1.1744035e-04  -6.7166701e-05   1.5646806e-04   3.3117249e-05  -2.4111699e-05  -7.0514626e-05  -7.1376716e-05  -5.6130373e-05  -3.7400656e-05  -7.7281052e-05  -9.9193606e-05   1.3940484e-05  -3.1036531e-05   3.3993628e-06  -6.2125865e-05  -1.0151876e-04  -8.2785042e-05  -7.3130923e-05   1.4753206e-05   1.3348016e-04   2.1351444e-04  -3.9478025e-05  -5.3574888e-05  -3.1746917e-05   2.2096872e-05   4.0699083e-06   4.5804695e-06   6.4221002e-05  -1.4472017e-04  -2.6674416e-04  -1.7272987e-04  -2.8078762e-04  -4.1324602e-05  -7.2452674e-05  -5.3461382e-04  -2.9744115e-05  -1.1653149e-04  -2.2463186e-04  -2.8273760e-04  -1.7518139e-04  -2.0985823e-04  -2.9935626e-04  -4.7954381e-04  -3.2865796e-04  -2.3863363e-04  -1.4301156e-04  -8.8984939e-05  -1.7617867e-04  -1.3379016e-04  -1.3474486e-04  -9.3403133e-05  -2.4236290e-04  -3.4958085e-05  -1.0868545e-04  -1.0372800e-04  -9.7331230e-05   2.8787804e-04   2.3440063e-03   1.1452499e-03  -5.8700214e-05  -2.4360495e-05   3.0741697e-06   5.3411092e-04   9.2997766e-04   3.6270523e-05   1.2075985e-04   9.4706907e-05   5.1771863e-05   1.0588470e-04   8.4823708e-05   7.8426900e-05   5.8264689e-05  -2.1629950e-04  -1.5526145e-04   5.2219547e-05   1.0553842e-04   6.4147620e-05   5.7056521e-05  -4.5947078e-05  -1.1578928e-04  -2.6422822e-04  -1.3835475e-06   8.0689552e-05   5.1352502e-05   2.0774443e-05   6.8484574e-05   1.0423751e-04   6.9816019e-05   8.9574051e-05   1.0976056e-04   1.2021605e-05   7.8650611e-05   6.5737127e-05   6.2688719e-05  -1.9867285e-04  -3.9536245e-04  -2.4114043e-04   1.6058236e-05   3.4501316e-05   3.3457559e-07  -1.5738907e-04  -3.2145169e-04  -3.4627863e-05   9.0175510e-05  -4.7871043e-05   1.5459688e-04  -2.7554960e-04  -8.4118061e-05  -2.6787301e-04   3.8577477e-06  -5.8061717e-05   5.4367854e-04  -1.9279813e-05  -2.3802676e-05   3.3416274e-04   2.5043749e-04   3.9372282e-04   5.0520303e-04  -2.0852320e-04  -4.1820856e-05  -1.1403236e-04  -2.7898734e-04   1.7820572e-04   1.4795648e-04   7.1079437e-05  -2.7797800e-05  -1.1000619e-04   1.2662510e-04  -8.3876997e-06   7.1511928e-05  -1.2555886e-04   3.7272511e-05   6.7737880e-05   5.2405701e-04   3.8677853e-04  -1.5791953e-04  -2.3837005e-04   2.9672408e-04  -1.1175906e-04   2.5144619e-04   7.7944673e-05   3.8196526e-04
   1.6160648e-05  -2.7247632e-05   1.7176920e-06  -5.5890968e-05   7.4412550e-05  -3.6605015e-05  -2.1179650e-04  -3.3708801e-04  -9.5143834e-05  -7.5970302e-05  -1.7494418e-04  -1.4087677e-04  -7.6456080e-05  -2.5453451e-04  -2.0841568e-04  -1.6375956e-04  -9.0898122e-05  -7.0495819e-05  -7.7610113e-05  -9.0855597e-05  -5.9051778e-05   4.6523683e-06   2.0887105e-06  -2.5779198e-05  -8.3349594e-05  -9.4945950e-05  -6.5503873e-05  -6.9714354e-05  -1.4121651e-04  -1.4611506e-04   6.6467093e-05  -1.1410520e-05  -3.2587109e-05  -9.3589164e-05  -8.8275148e-05  -1.5362432e-04  -1.2047611e-04   7.8863671e-05  -1.8942265e-04  -1.1742097e-04  -2.7886894e-04  -1.9015957e-04  -2.2401016e-04  -1.1216061e-04   2.5332720e-04   3.0128699e-04  -1.4936708e-04  -2.0457619e-04  -6.7390981e-05  -4.7785921e-05   6.9407394e-05   4.0478577e-04   2.5533481e-04  -1.5078361e-04   3.3243288e-05  -7.3650009e-05  -9.7391874e-05  -1.4622005e-04  -8.2701283e-05  -2.2287238e-04  -1.1222047e-04  -2.4954656e-04  -1.7596052e-04  -7.0846504e-05  -1.3308161e-04  -1.4061331e-04   1.3009157e-04   5.0785146e-05  -3.2180470e-04  -1.4062395e-04  -8.8678158e-05   2.3896587e-05   9.8579224e-05   2.0116506e-04   2.1145172e-05  -2.6154458e-04   8.2110092e-04   4.6881310e-04   1.9494206e-03   2.1909950e-03   1.3000818e-03  -8.7237959e-04   3.8109566e-03   2.0166345e-03   6.6723199e-04  -1.2815760e-03  -1.4545921e-03  -2.1978994e-03   6.5357097e-04   2.7588299e-03   4.0296765e-03  -6.6678787e-05  -1.5847298e-03  -1.2355798e-03  -5.8181146e-04  -1.5081420e-03  -4.8507480e-04   1.5641206e-03  -4.7084167e-05   1.0078328e-03   5.1105085e-04  -9.8830555e-05  -1.7376676e-04  -5.3919262e-05   2.5891783e-03   2.8049948e-03   2.8854366e-03   2.2517838e-04   2.1917173e-04  -2.2785249e-04   1.2793957e-03   3.5162635e-03   1.4823373e-03   1.4867698e-04  -6.2208768e-05  -8.0809837e-05  -1.1606777e-04  -1.5147279e-04  -2.7464498e-05  -8.6250437e-05  -4.7594873e-05  -4.6536334e-05  -1.4193801e-04  -1.5304151e-04  -1.9621581e-04  -1.5411310e-04  -7.2200367e-05  -5.6503601e-05  -4.6679360e-05  -2.3478623e-04  -1.2057485e-04  -9.3121685e-05  -1.0560539e-04  -1.3900102e-04  -9.1107116e-05  -1.2451136e-04  -5.4100529e-05  -1.5214236e-04  -1.5446922e-04  -1.0406679e-04  -1.0469475e-04  -1.1873776e-04   1.7865369e-05   5.4044295e-05   9.4442571e-05  -1.4663245e-05  -1.9123305e-05  -7.6339383e-05   4.1551992e-05   2.4321591e-06   1.0810533e-05  -1.7064595e-05  -1.6579268e-04  -1.8875514e-04  -1.4531787e-04  -2.4667763e-04  -4.9838575e-05  -1.2391813e-04  -1.9154237e-04  -1.3686171e-04  -2.2339872e-04  -1.5161816e-04  -1.9802116e-04  -1.9993035e-04  -2.0442396e-04  -3.0509780e-04  -2.9935496e-04  -2.3321756e-04  -4.4551365e-05  -3.5803822e-05  -1.1633797e-04  -1.3337293e-04  -2.5829723e-05  -4.0016668e-05  -1.8621320e-05  -1.1924590e-04  -4.5686952e-05  -5.0276116e-05  -4.6554499e-05  -5.2121536e-05  -7.3470188e-05   4.9295099e-05  -6.0463982e-06  -3.8976435e-06   7.5277499e-06  -4.0123095e-05  -1.0824597e-05  -1.5574465e-04  -1.2754669e-04  -4.2013014e-05  -1.3798014e-04  -1.0666392e-04  -1.7349073e-04  -2.1098313e-04  -1.1053477e-04  -8.5408672e-05  -1.4832425e-04   4.7356591e-06  -1.3493933e-04  -1.3486330e-04  -1.8803532e-04  -1.0109297e-04  -2.3741700e-05  -7.5346857e-05  -2.3506514e-04  -2.7654437e-04  -1.0391372e-04  -8.9041050e-05  -9.8181438e-05  -1.4654497e-04  -1.0441118e-04  -1.5173305e-04  -7.8815503e-05  -1.8402413e-04  -1.5325174e-04  -1.0066094e-04  -1.0992325e-04  -9.8519135e-05  -1.0211929e-04  -5.8128199e-05  -1.2865310e-04  -8.3840552e-05  -5.6347332e-05  -3.5020418e-05  -6.8970708e-05  -1.7259927e-04  -5.2146634e-05   3.1051684e-05  -1.6981945e-04  -1.5065245e-04  -3.4060142e-05  -2.8804882e-04  -1.3146346e-05  -1.8201079e-04  -2.8280859e-04  -4.1115940e-04  -1.6766870e-04  -1.8377915e-04  -4.0825050e-04  -2.5423983e-04  -1.2195307e-04  -2.5515991e-04  -9.4512449e-05  -2.3290500e-04  -2.1800540e-04  -1.5261925e-04  -1.9363685e-04  -1.0341631e-04  -2.8689466e-05   6.1305895e-05   1.3540413e-05   2.3040898e-05  -3.0819809e-05  -7.5112319e-05  -1.8217856e-04  -9.6317797e-05  -1.0486446e-04  -1.8740136e-04   9.4098936e-05  -4.3761737e-05  -4.0549092e-05  -1.4802751e-04  -1.0618733e-04  -1.3008938e-04  -1.7822874e-04   4.3377671e-05  -5.2343935e-06  -3.8352667e-06   2.6464034e-05  -1.2098423e-05   5.4865203e-05  -3.9995237e-05  -4.0981116e-05   1.4691894e-04  -5.3457296e-05   5.7479662e-06  -1.2715801e-04  -7.5849860e-05   1.6952459e-04   5.8199324e-05   8.2613784e-07  -6.8913952e-05  -7.9402486e-05  -6.4137583e-05  -4.5209682e-05  -9.0657929e-05  -1.1401379e-04   1.7506931e-06  -4.2178915e-05  -1.3100945e-05  -6.6578568e-05  -1.1498683e-04  -9.6857876e-05  -8.6577406e-05   3.0252606e-05   1.6255565e-04   2.2035649e-04  -5.1583988e-05  -6.0849020e-05  -3.2066871e-05   3.4553771e-05   2.2739066e-05   1.1598537e-05   4.9019588e-05  -1.6641588e-04  -2.8671660e-04  -1.8135112e-04  -2.9408099e-04  -5.4971628e-05  -7.8209559e-05  -5.9415616e-04  -1.4115882e-05  -1.1165276e-04  -2.1878462e-04  -2.9554672e-04  -1.8731756e-04  -2.2540138e-04  -3.2790886e-04  -5.5816243e-04  -3.3323667e-04  -2.4200413e-04  -1.4967964e-04  -1.0060090e-04  -1.8873335e-04  -1.4918376e-04  -1.4778886e-04  -1.0348391e-04  -2.5489687e-04  -2.7282110e-05  -1.1608993e-04  -1.1753806e-04  -9.8268002e-05   2.7119287e-04   2.5948240e-03   1.2075168e-03  -6.7034667e-05  -2.7454025e-05   5.5601025e-06   5.9272677e-04   1.0119555e-03   2.2661746e-05   1.0230018e-04   8.8866079e-05   5.0761524e-05   1.0597392e-04   8.2605346e-05   7.0873894e-05   5.0410968e-05  -2.3801139e-04  -1.4890450e-04   5.3975620e-05   1.0409388e-04   5.9922423e-05   4.3396114e-05  -4.5671498e-05  -1.2115165e-04  -2.8702383e-04  -8.6639919e-06   7.8173432e-05   3.7760509e-05   6.6368380e-06   5.6985784e-05   1.0911801e-04   6.8064597e-05   8.7040753e-05   1.1967701e-04   1.7028053e-05   8.1029393e-05   6.2215096e-05   6.4622575e-05  -2.1448033e-04  -4.2431754e-04  -2.7312960e-04   1.2840574e-05   3.5678203e-05   8.2887368e-07  -1.7051906e-04  -3.5554171e-04  -5.2361850e-05   9.2863325e-05  -2.4577414e-05   1.9097329e-04  -2.7459984e-04  -5.8648092e-05  -2.6397860e-04   2.3594496e-05  -4.8627016e-05   5.5424387e-04  -2.6418517e-06   1.4923001e-06   3.9809394e-04   2.9624594e-04   4.3391049e-04   5.4903520e-04  -1.9407629e-04  -1.0951340e-05  -1.0187137e-04  -2.6292589e-04   2.1473299e-04   1.8805801e-04   9.8677119e-05  -6.6675972e-06  -1.0038389e-04   1.6156407e-04   9.4212470e-06   9.3087801e-05  -1.1632223e-04   5.8203822e-05   6.8061849e-05   5.3224587e-04   4.1058864e-04  -1.4862848e-04  -2.4778884e-04   3.2635693e-04  -1.1677745e-04   2.4960032e-04   8.9618525e-05   4.2498228e-04
  -2.4695973e-08  -4.3391468e-05  -1.5677617e-05  -7.7640559e-05   6.5236406e-05  -5.2526592e-05  -2.2406855e-04  -3.4736166e-04  -1.1543169e-04  -9.4446336e-05  -2.0483440e-04  -1.6546613e-04  -8.0490113e-05  -2.7002146e-04  -2.2809119e-04  -1.9349717e-04  -1.0723366e-04  -8.9062097e-05  -9.8270488e-05  -1.1772102e-04  -8.0563169e-05  -9.2741664e-06  -1.0083600e-05  -4.6687056e-05  -1.0342540e-04  -1.1545984e-04  -8.6098244e-05  -8.8348269e-05  -1.5331409e-04  -1.5706054e-04   6.0785693e-05  -2.0993546e-05  -3.9710096e-05  -1.0715847e-04  -1.0072392e-04  -1.7340280e-04  -1.3280587e-04   7.4112259e-05  -2.0974428e-04  -1.1859596e-04  -3.1727740e-04  -2.0239598e-04  -2.6127037e-04  -1.0699696e-04   2.8450221e-04   3.7252325e-04  -1.5391235e-04  -1.9896983e-04  -4.7807230e-05  -1.8743829e-05   1.0683090e-04   4.6723498e-04   2.7719852e-04  -1.4818194e-04   5.4078916e-05  -7.5080642e-05  -9.7205414e-05  -1.4029135e-04  -8.0358417e-05  -2.5010484e-04  -1.2271155e-04  -2.6905873e-04  -1.7926545e-04  -7.0739505e-05  -1.4166737e-04  -1.3729230e-04   1.4532463e-04   8.0475894e-05  -3.3381891e-04  -1.5857473e-04  -1.0415240e-04   4.1783727e-05   1.1453507e-04   2.2262490e-04   2.6557633e-05  -2.7131349e-04   9.3525225e-04   5.6629035e-04   2.0056663e-03   2.3487484e-03   1.3525778e-03  -9.1460972e-04   4.3209217e-03   2.7078711e-03   7.4567828e-04  -1.3988328e-03  -1.5074662e-03  -2.2640037e-03   7.1722064e-04   3.1156262e-03   4.6736985e-03  -1.3182221e-04  -1.7566259e-03  -1.3106850e-03  -5.8516102e-04  -1.5543412e-03  -5.0266242e-04   1.5910612e-03  -6.6680053e-05   1.0414378e-03   5.0368273e-04  -1.0803185e-04  -1.8580301e-04  -7.0781090e-05   2.9867030e-03   3.3272929e-03   3.2966556e-03   2.4438786e-04   2.3719184e-04  -2.1805416e-04   1.6601334e-03   4.0305233e-03   1.5757176e-03   2.0904808e-05  -8.0637165e-05  -8.9706828e-05  -1.3195093e-04  -1.6796372e-04  -4.5891911e-05  -1.0023304e-04  -6.5182726e-05  -4.7662207e-05  -1.5248184e-04  -1.6749447e-04  -2.1351763e-04  -1.6913443e-04  -7.3080659e-05  -5.9475016e-05  -7.2229929e-05  -2.5418134e-04  -1.3326200e-04  -1.0985968e-04  -1.2003385e-04  -1.5937704e-04  -1.0291399e-04  -1.4236512e-04  -6.6931011e-05  -1.6730483e-04  -1.6157206e-04  -1.1001778e-04  -1.1528000e-04  -1.2394392e-04   1.9628489e-06   6.0531421e-05   7.6434927e-05  -1.8027228e-05  -2.0469479e-05  -8.0066743e-05   3.6114656e-05  -1.4315413e-05   6.7164702e-07  -1.7799358e-05  -1.7579155e-04  -1.9739263e-04  -1.5172992e-04  -2.5408396e-04  -5.1635538e-05  -1.3167200e-04  -1.8822504e-04  -1.2510443e-04  -2.3004023e-04  -1.5192838e-04  -2.0219467e-04  -2.0644275e-04  -2.1233211e-04  -3.1687872e-04  -3.0998780e-04  -2.3565946e-04  -3.8550935e-05  -3.0875326e-05  -1.2295185e-04  -1.3413828e-04  -2.2273939e-05  -3.3501170e-05  -1.6505161e-05  -1.1152626e-04  -3.3302447e-05  -4.6636331e-05  -4.0996909e-05  -4.6566081e-05  -8.8110031e-05   7.0180891e-05  -1.6756100e-05   2.5015187e-06   1.3688330e-05  -4.2929139e-05  -7.5398878e-06  -1.6972230e-04  -1.3625975e-04  -4.3507499e-05  -1.5680361e-04  -1.1511506e-04  -1.9304105e-04  -2.2471079e-04  -1.3035677e-04  -9.2639791e-05  -1.5367464e-04   2.8567636e-05  -1.3985172e-04  -1.4005855e-04  -1.9493546e-04  -1.0205498e-04  -1.4913355e-05  -6.2107601e-05  -2.5351623e-04  -2.8791160e-04  -1.0737906e-04  -1.0181454e-04  -1.0621585e-04  -1.5699843e-04  -1.1245207e-04  -1.6574980e-04  -8.9322888e-05  -1.9681852e-04  -1.6068795e-04  -1.0267836e-04  -1.2078081e-04  -9.9437885e-05  -1.1379975e-04  -5.0223768e-05  -1.4566450e-04  -9.4024298e-05  -6.2868236e-05  -3.3384656e-05  -7.6910964e-05  -1.8932526e-04  -5.6714957e-05   4.0905957e-05  -1.9558715e-04  -1.7066389e-04  -4.9840589e-05  -3.2384726e-04  -1.9909407e-05  -1.9663344e-04  -2.8275225e-04  -4.0893919e-04  -1.6955620e-04  -2.0037013e-04  -4.5161422e-04  -2.7681944e-04  -1.3030426e-04  -2.5616749e-04  -8.8856229e-05  -2.5504871e-04  -2.3028427e-04  -1.7955651e-04  -2.2949022e-04  -1.2744473e-04  -4.1936744e-05   4.4155327e-05   3.1972031e-06  -5.1584290e-06  -4.3280585e-05  -8.9424095e-05  -1.9841332e-04  -1.1710913e-04  -1.0409345e-04  -1.8140898e-04   5.7575143e-05  -6.8932418e-05  -5.0252444e-05  -1.6189620e-04  -1.0991617e-04  -1.3638327e-04  -1.9137262e-04  -1.7029834e-06  -2.1293578e-05  -1.4201591e-05   1.9277649e-05  -2.7776078e-05   4.3626929e-05  -4.8399250e-05  -1.6069481e-05   1.9329042e-04  -5.5056857e-05   1.9147963e-06  -1.3497475e-04  -8.4381200e-05   1.8074649e-04   8.6028374e-05   3.0549671e-05  -6.5215346e-05  -8.6666349e-05  -7.1610877e-05  -5.3163210e-05  -1.0405524e-04  -1.2818228e-04  -1.0571549e-05  -5.3538559e-05  -3.0256086e-05  -6.8880183e-05  -1.2749467e-04  -1.1071218e-04  -9.9627430e-05   4.8376445e-05   1.9332294e-04   2.2443764e-04  -6.3591848e-05  -6.7571192e-05  -3.1218458e-05   4.9138956e-05   4.4959256e-05   2.0782643e-05   3.1692938e-05  -1.8740944e-04  -3.0333505e-04  -1.8861445e-04  -3.0256338e-04  -6.9812028e-05  -8.2145803e-05  -6.4533510e-04   3.1886884e-06  -1.0472308e-04  -2.0774270e-04  -3.0240279e-04  -1.9510260e-04  -2.3877553e-04  -3.5226167e-04  -6.2904332e-04  -3.3007999e-04  -2.3979446e-04  -1.5412881e-04  -1.1055529e-04  -1.9773133e-04  -1.6436579e-04  -1.6057004e-04  -1.1314415e-04  -2.6595243e-04  -1.9377801e-05  -1.2327232e-04  -1.3173514e-04  -9.9270116e-05   2.5450625e-04   2.8131369e-03   1.2591914e-03  -7.5150822e-05  -3.1005537e-05   1.0205292e-05   6.4852815e-04   1.0944341e-03   1.0187408e-05   7.8374782e-05   8.1766163e-05   5.0140187e-05   1.0734587e-04   8.1273779e-05   6.2180058e-05   4.1739321e-05  -2.5459123e-04  -1.3659633e-04   5.7125477e-05   1.0253491e-04   5.6519135e-05   2.7514282e-05  -4.4045403e-05  -1.2384915e-04  -3.0244498e-04  -1.2035832e-05   7.5760666e-05   2.3966632e-05  -7.6779373e-06   4.4327678e-05   1.1377933e-04   6.7235801e-05   8.3683280e-05   1.3027001e-04   2.5040861e-05   8.3487667e-05   5.9223629e-05   6.7308520e-05  -2.2696698e-04  -4.5060305e-04  -3.0363639e-04   1.0365499e-05   3.7125613e-05   1.7573924e-06  -1.8099248e-04  -3.8640431e-04  -7.0340978e-05   9.3548351e-05   1.2142118e-06   2.2537444e-04  -2.6656364e-04  -2.9416881e-05  -2.5255514e-04   4.6312535e-05  -3.5704799e-05   5.5234467e-04   1.6015122e-05   3.0908698e-05   4.5994967e-04   3.4138394e-04   4.6811092e-04   5.8363912e-04  -1.7489536e-04   2.3870338e-05  -8.6558663e-05  -2.3905178e-04   2.4929756e-04   2.2983866e-04   1.2839596e-04   1.7326754e-05  -8.6751856e-05   1.9629972e-04   2.8145233e-05   1.1610814e-04  -1.0273631e-04   8.0093919e-05   6.7611635e-05   5.3041524e-04   4.2865516e-04  -1.3420504e-04  -2.5249532e-04   3.5219794e-04  -1.1904226e-04   2.4532295e-04   1.0109277e-04   4.6176804e-04
  -1.8175238e-05  -6.0494657e-05  -3.4439348e-05  -1.0031350e-04   5.3727993e-05  -6.9254579e-05  -2.3208689e-04  -3.5031574e-04  -1.3535694e-04  -1.1297363e-04  -2.3349963e-04  -1.8937849e-04  -8.3653006e-05  -2.8112476e-04  -2.4404744e-04  -2.2216038e-04  -1.2309793e-04  -1.0757113e-04  -1.1901711e-04  -1.4504543e-04  -1.0252113e-04  -2.4111890e-05  -2.3342070e-05  -6.8649285e-05  -1.2301397e-04  -1.3552305e-04  -1.0692231e-04  -1.0711411e-04  -1.6279992e-04  -1.6444137e-04   5.3233386e-05  -3.1015197e-05  -4.6597362e-05  -1.1994869e-04  -1.1180575e-04  -1.9083785e-04  -1.4309387e-04   6.7098285e-05  -2.2551005e-04  -1.1599815e-04  -3.4765936e-04  -2.0730890e-04  -2.9389725e-04  -9.6585201e-05   3.1700192e-04   4.4730294e-04  -1.5165231e-04  -1.8371690e-04  -2.1137600e-05   1.7504949e-05   1.5105070e-04   5.3522226e-04   3.0069752e-04  -1.3595185e-04   7.8089616e-05  -7.3381469e-05  -9.2621180e-05  -1.2776104e-04  -7.4799469e-05  -2.7329786e-04  -1.3046706e-04  -2.8247128e-04  -1.7655512e-04  -6.7906392e-05  -1.4698852e-04  -1.2964956e-04   1.5980732e-04   1.1948026e-04  -3.3448638e-04  -1.7444533e-04  -1.1915482e-04   6.1828247e-05   1.3134584e-04   2.4486613e-04   3.3961196e-05  -2.7221291e-04   1.0401216e-03   6.6651923e-04   2.0251355e-03   2.4764046e-03   1.3856029e-03  -9.4700979e-04   4.8506016e-03   3.4821410e-03   8.1963365e-04  -1.4998873e-03  -1.5361709e-03  -2.2966950e-03   7.7306786e-04   3.4636963e-03   5.3459871e-03  -1.9774180e-04  -1.9179308e-03  -1.3674128e-03  -5.7569913e-04  -1.5792207e-03  -5.1123613e-04   1.5981171e-03  -8.5612458e-05   1.0654612e-03   4.8769430e-04  -1.1437666e-04  -1.9001325e-04  -8.7676588e-05   3.3991589e-03   3.8672350e-03   3.7079504e-03   2.6600303e-04   2.5742188e-04  -2.0140287e-04   2.0818238e-03   4.5650378e-03   1.6573272e-03  -1.3219129e-04  -9.8177928e-05  -9.7184253e-05  -1.4496964e-04  -1.8134494e-04  -6.3796811e-05  -1.1253276e-04  -8.1328326e-05  -4.7628551e-05  -1.5954893e-04  -1.7794409e-04  -2.2619123e-04  -1.8121789e-04  -7.2259654e-05  -6.1642763e-05  -9.7026387e-05  -2.6728247e-04  -1.4301961e-04  -1.2434662e-04  -1.3237906e-04  -1.7706930e-04  -1.1301421e-04  -1.5715949e-04  -7.8628081e-05  -1.7952639e-04  -1.6454989e-04  -1.1375068e-04  -1.2324659e-04  -1.2643133e-04  -1.4825939e-05   6.5612600e-05   5.5404622e-05  -2.0837965e-05  -2.0943090e-05  -8.2644597e-05   2.9313506e-05  -3.1461405e-05  -9.2378484e-06  -1.9091180e-05  -1.8201349e-04  -2.0204757e-04  -1.5491390e-04  -2.5629674e-04  -5.1843876e-05  -1.3655630e-04  -1.8120799e-04  -1.0954282e-04  -2.3172650e-04  -1.4748444e-04  -2.0151978e-04  -2.0792276e-04  -2.1746662e-04  -3.2486205e-04  -3.1725508e-04  -2.3219669e-04  -2.9929047e-05  -2.3876790e-05  -1.2735856e-04  -1.3066730e-04  -1.6644093e-05  -2.5855452e-05  -1.3361235e-05  -1.0063495e-04  -1.8093536e-05  -4.0677596e-05  -3.2438640e-05  -3.8054861e-05  -1.0285361e-04   9.1067630e-05  -2.9627850e-05   1.0088111e-05   2.0986026e-05  -4.5018780e-05  -4.3524723e-06  -1.8293663e-04  -1.4349610e-04  -4.3424271e-05  -1.7368862e-04  -1.2191366e-04  -2.0915444e-04  -2.3432396e-04  -1.4831261e-04  -9.8277516e-05  -1.5403110e-04   5.4492040e-05  -1.4157755e-04  -1.4194080e-04  -1.9778088e-04  -1.0094903e-04  -4.5063447e-06  -4.5030211e-05  -2.6567033e-04  -2.9250050e-04  -1.0870267e-04  -1.1297030e-04  -1.1205504e-04  -1.6456930e-04  -1.1845626e-04  -1.7613608e-04  -9.8469772e-05  -2.0605990e-04  -1.6485798e-04  -1.0229717e-04  -1.2934844e-04  -9.8045995e-05  -1.2350867e-04  -4.1794081e-05  -1.6053456e-04  -1.0253527e-04  -6.8147347e-05  -3.1381909e-05  -8.3949357e-05  -2.0250604e-04  -6.0259081e-05   4.9515441e-05  -2.1814146e-04  -1.8759061e-04  -6.6518529e-05  -3.5408640e-04  -2.7792412e-05  -2.0702277e-04  -2.7563642e-04  -3.9579543e-04  -1.6471324e-04  -2.1241294e-04  -4.8607033e-04  -2.9239469e-04  -1.3516137e-04  -2.5187167e-04  -8.1486746e-05  -2.7076996e-04  -2.3695941e-04  -2.0532002e-04  -2.6341494e-04  -1.4944761e-04  -5.4811929e-05   2.3621214e-05  -8.1248054e-06  -3.6094338e-05  -5.6088919e-05  -1.0206033e-04  -2.1201540e-04  -1.3659235e-04  -1.0098234e-04  -1.7219078e-04   1.1493447e-05  -9.6238970e-05  -6.0190391e-05  -1.7358906e-04  -1.1232179e-04  -1.4181396e-04  -2.0442692e-04  -5.2775098e-05  -3.8020167e-05  -2.4797030e-05   1.1357766e-05  -4.3706206e-05   3.1081376e-05  -5.6866107e-05   1.3333444e-05   2.4161050e-04  -5.5456470e-05  -2.4484426e-06  -1.4056154e-04  -9.2444022e-05   1.9010873e-04   1.1591259e-04   6.4176047e-05  -5.9492666e-05  -9.2853881e-05  -7.8276182e-05  -6.0861444e-05  -1.1701747e-04  -1.4125553e-04  -2.2380341e-05  -6.4658575e-05  -4.7239624e-05  -6.8808105e-05  -1.3864784e-04  -1.2397750e-04  -1.1186102e-04   6.8719552e-05   2.2536911e-04   2.2618604e-04  -7.5026532e-05  -7.3549579e-05  -2.9149133e-05   6.5568714e-05   7.0271458e-05   3.2248404e-05   1.3178529e-05  -2.0722493e-04  -3.1669684e-04  -1.9458355e-04  -3.0637517e-04  -8.5418185e-05  -8.4244901e-05  -6.8669801e-04   2.2092441e-05  -9.6136588e-05  -1.9223918e-04  -3.0335631e-04  -1.9845940e-04  -2.5015606e-04  -3.7166106e-04  -6.8974835e-04  -3.1966562e-04  -2.3246997e-04  -1.5639911e-04  -1.1874010e-04  -2.0316558e-04  -1.7924696e-04  -1.7304960e-04  -1.2225852e-04  -2.7580256e-04  -1.1593261e-05  -1.3031512e-04  -1.4606393e-04  -1.0095374e-04   2.3929880e-04   2.9942404e-03   1.3015523e-03  -8.2782424e-05  -3.4824264e-05   1.7042655e-05   7.0063242e-04   1.1779494e-03  -3.6648498e-07   5.0408024e-05   7.4238891e-05   5.0434147e-05   1.1081397e-04   8.1572888e-05   5.3098314e-05   3.2976372e-05  -2.6526315e-04  -1.1873145e-04   6.2049413e-05   1.0146545e-04   5.4710219e-05   1.0267666e-05  -4.1160637e-05  -1.2400157e-04  -3.0958410e-04  -1.0704076e-05   7.4154756e-05   1.1050237e-05  -2.1147541e-05   3.1375664e-05   1.1842518e-04   6.7877154e-05   8.0082477e-05   1.4167045e-04   3.6202107e-05   8.6269572e-05   5.7388119e-05   7.1082636e-05  -2.3546590e-04  -4.7439869e-04  -3.3176271e-04   8.9249099e-06   3.9009521e-05   3.1452965e-06  -1.8850034e-04  -4.1338399e-04  -8.7502381e-05   9.2475502e-05   2.8490060e-05   2.5634976e-04  -2.5194418e-04   2.0614219e-06  -2.3418056e-04   7.1383302e-05  -2.0168090e-05   5.3831453e-04   3.5899405e-05   6.3390989e-05   5.1763199e-04   3.8451762e-04   4.9512050e-04   6.0750712e-04  -1.5265321e-04   6.1012814e-05  -6.9142408e-05  -2.0900060e-04   2.8051428e-04   2.7212780e-04   1.5962483e-04   4.2996616e-05  -6.9756841e-05   2.2944506e-04   4.6763237e-05   1.3991433e-04  -8.5545405e-05   1.0196959e-04   6.6067822e-05   5.1937649e-04   4.4056986e-04  -1.1511391e-04  -2.5275961e-04   3.7348731e-04  -1.1904569e-04   2.3909671e-04   1.1176493e-04   4.9123077e-04
  -3.7724947e-05  -7.8031522e-05  -5.3959597e-05  -1.2329189e-04   4.0301653e-05  -8.6290552e-05  -2.3572546e-04  -3.4592720e-04  -1.5429008e-04  -1.3098593e-04  -2.6007221e-04  -2.1192084e-04  -8.5949660e-05  -2.8754756e-04  -2.5593696e-04  -2.4890266e-04  -1.3801429e-04  -1.2543176e-04  -1.3916689e-04  -1.7197043e-04  -1.2420158e-04  -3.9385130e-05  -3.7241364e-05  -9.0990690e-05  -1.4145207e-04  -1.5447662e-04  -1.2730356e-04  -1.2541148e-04  -1.6954335e-04  -1.6786169e-04   4.3942673e-05  -4.1145668e-05  -5.3020585e-05  -1.3159239e-04  -1.2114857e-04  -2.0557080e-04  -1.5107693e-04   5.8095124e-05  -2.3559487e-04  -1.0952937e-04  -3.6803148e-04  -2.0406306e-04  -3.1995731e-04  -8.1045866e-05   3.5018887e-04   5.2288227e-04  -1.4225696e-04  -1.5899423e-04   1.2083802e-05   5.9982844e-05   2.0102950e-04   6.0812235e-04   3.2668798e-04  -1.1379340e-04   1.0460004e-04  -6.8217427e-05  -8.3452766e-05  -1.0867543e-04  -6.5876704e-05  -2.9131813e-04  -1.3489761e-04  -2.8871766e-04  -1.6762368e-04  -6.2195909e-05  -1.4862277e-04  -1.1796447e-04   1.7332929e-04   1.6742881e-04  -3.2305835e-04  -1.8749874e-04  -1.3310120e-04   8.3461405e-05   1.4871905e-04   2.6799432e-04   4.3281470e-05  -2.6372867e-04   1.1335409e-03   7.6680006e-04   2.0139848e-03   2.5755458e-03   1.4026028e-03  -9.6999728e-04   5.3954135e-03   4.3248000e-03   8.8962849e-04  -1.5827329e-03  -1.5423665e-03  -2.2996581e-03   8.1949895e-04   3.7953460e-03   6.0350843e-03  -2.5958302e-04  -2.0645616e-03  -1.4053037e-03  -5.5446498e-04  -1.5847263e-03  -5.1110648e-04   1.5912582e-03  -1.0246248e-04   1.0832461e-03   4.6674717e-04  -1.1716155e-04  -1.8576602e-04  -1.0348314e-04   3.8177947e-03   4.4132932e-03   4.1116420e-03   2.9042773e-04   2.7984073e-04  -1.7784140e-04   2.5346065e-03   5.1108855e-03   1.7279892e-03  -3.0251583e-04  -1.1397558e-04  -1.0293650e-04  -1.5442058e-04  -1.9114571e-04  -8.0221252e-05  -1.2251856e-04  -9.5364354e-05  -4.6681838e-05  -1.6287013e-04  -1.8385372e-04  -2.3360472e-04  -1.8979112e-04  -6.9871898e-05  -6.3007856e-05  -1.2006880e-04  -2.7354666e-04  -1.4936789e-04  -1.3569936e-04  -1.4195705e-04  -1.9116785e-04  -1.2091965e-04  -1.6826210e-04  -8.8574280e-05  -1.8842850e-04  -1.6332421e-04  -1.1513269e-04  -1.2816300e-04  -1.2613510e-04  -3.1564870e-05   6.8936098e-05   3.2416353e-05  -2.2931391e-05  -2.0465408e-05  -8.3997666e-05   2.1502329e-05  -4.8040060e-05  -1.8084270e-05  -2.0909918e-05  -1.8445037e-04  -2.0266761e-04  -1.5507690e-04  -2.5352948e-04  -5.0853238e-05  -1.3840478e-04  -1.7118423e-04  -9.0760573e-05  -2.2856278e-04  -1.3843790e-04  -1.9602540e-04  -2.0414986e-04  -2.1990472e-04  -3.2921561e-04  -3.2188172e-04  -2.2312271e-04  -1.8880504e-05  -1.5174219e-05  -1.2946053e-04  -1.2310102e-04  -9.0199226e-06  -1.7867748e-05  -9.4302112e-06  -8.7369523e-05  -7.1205006e-07  -3.2540964e-05  -2.1190866e-05  -2.6736317e-05  -1.1715450e-04   1.1093942e-04  -4.4362573e-05   1.8460863e-05   2.9200545e-05  -4.6170480e-05  -1.5088197e-06  -1.9523821e-04  -1.4925854e-04  -4.1757881e-05  -1.8795413e-04  -1.2688324e-04  -2.2122641e-04  -2.3958278e-04  -1.6355226e-04  -1.0208047e-04  -1.4901215e-04   8.1537752e-05  -1.4013256e-04  -1.4051725e-04  -1.9653226e-04  -9.7852785e-05   7.0909516e-06  -2.4491402e-05  -2.7052051e-04  -2.9020300e-04  -1.0791388e-04  -1.2190353e-04  -1.1537671e-04  -1.6896651e-04  -1.2218382e-04  -1.8236434e-04  -1.0578798e-04  -2.1149721e-04  -1.6576209e-04  -9.9570668e-05  -1.3522319e-04  -9.4534366e-05  -1.3061859e-04  -3.3619708e-05  -1.7267714e-04  -1.0900531e-04  -7.1960368e-05  -2.9168478e-05  -8.9764979e-05  -2.1145677e-04  -6.2494952e-05   5.6143261e-05  -2.3669013e-04  -2.0070830e-04  -8.3241368e-05  -3.7714065e-04  -3.6936341e-05  -2.1263142e-04  -2.6114132e-04  -3.7125479e-04  -1.5230482e-04  -2.1904083e-04  -5.0971062e-04  -2.9979431e-04  -1.3581580e-04  -2.4195658e-04  -7.2719203e-05  -2.7863128e-04  -2.3749766e-04  -2.2902265e-04  -2.9432766e-04  -1.6816602e-04  -6.6773392e-05   7.1362592e-07  -1.9894533e-05  -6.8269823e-05  -6.8488068e-05  -1.1239152e-04  -2.2288833e-04  -1.5376606e-04  -9.5586048e-05  -1.6019513e-04  -4.3087324e-05  -1.2476283e-04  -7.0081608e-05  -1.8272183e-04  -1.1341559e-04  -1.4626557e-04  -2.1735241e-04  -1.0799235e-04  -5.4639333e-05  -3.5132844e-05   3.1547550e-06  -5.9156120e-05   1.7850653e-05  -6.5012933e-05   4.6263078e-05   2.9056125e-04  -5.4583169e-05  -7.0142733e-06  -1.4362740e-04  -9.9677824e-05   1.9768245e-04   1.4711697e-04   1.0065252e-04  -5.1854365e-05  -9.7654722e-05  -8.3852442e-05  -6.7861313e-05  -1.2903849e-04  -1.5278519e-04  -3.3116642e-05  -7.5081881e-05  -6.3267125e-05  -6.6255315e-05  -1.4808147e-04  -1.3627963e-04  -1.2288408e-04   9.0754344e-05   2.5824047e-04   2.2609840e-04  -8.5443919e-05  -7.8612141e-05  -2.5851762e-05   8.3454814e-05   9.8075623e-05   4.6029581e-05  -5.5592995e-06  -2.2540161e-04  -3.2703103e-04  -1.9918041e-04  -3.0578368e-04  -1.0125925e-04  -8.4572104e-05  -7.1729039e-04   4.2654050e-05  -8.6192809e-05  -1.7304438e-04  -2.9865025e-04  -1.9754567e-04  -2.5977790e-04  -3.8555825e-04  -7.3859407e-04  -3.0272397e-04  -2.2067773e-04  -1.5652767e-04  -1.2515592e-04  -2.0518342e-04  -1.9367993e-04  -1.8508675e-04  -1.3065181e-04  -2.8457887e-04  -4.0930875e-06  -1.3720756e-04  -1.6015159e-04  -1.0380267e-04   2.2647542e-04   3.1360901e-03   1.3359257e-03  -8.9639843e-05  -3.8617004e-05   2.5945684e-05   7.4821613e-04   1.2626322e-03  -8.4816515e-06   2.0119071e-05   6.7107345e-05   5.2091573e-05   1.1697718e-04   8.4072892e-05   4.4355551e-05   2.4819941e-05  -2.6956572e-04  -9.5979155e-05   6.8967293e-05   1.0137890e-04   5.5125560e-05  -7.4376916e-06  -3.7166178e-05  -1.2187030e-04  -3.0794029e-04  -4.2437034e-06   7.3978199e-05  -2.7009630e-08  -3.2837566e-05   1.8956252e-05   1.2320698e-04   7.0370295e-05   7.6795869e-05   1.5390707e-04   5.0428471e-05   8.9545348e-05   5.7197595e-05   7.6166872e-05  -2.3943233e-04  -4.9589437e-04  -3.5668491e-04   8.7295080e-06   4.1458390e-05   4.9766422e-06  -1.9285347e-04  -4.3598940e-04  -1.0281420e-04   8.9989588e-05   5.6170640e-05   2.8266346e-04  -2.3157847e-04   3.4138951e-05  -2.0981866e-04   9.7991428e-05  -3.1683824e-06   5.1295002e-04   5.6129092e-05   9.7649923e-05   5.6923460e-04   4.2432163e-04   5.1404562e-04   6.1957794e-04  -1.2923071e-04   9.8669591e-05  -5.0801284e-05  -1.7477726e-04   3.0718322e-04   3.1359852e-04   1.9165548e-04   6.8994220e-05  -5.0262586e-05   2.5963421e-04   6.4226794e-05   1.6374729e-04  -6.5760592e-05   1.2282100e-04   6.2998510e-05   5.0015721e-04   4.4606167e-04  -9.2045100e-05  -2.4909750e-04   3.8958834e-04  -1.1753026e-04   2.3119906e-04   1.2098982e-04   5.1268929e-04
  -5.8055132e-05  -9.5454499e-05  -7.3620160e-05  -1.4594031e-04   2.5424666e-05  -1.0311028e-04  -2.3504981e-04  -3.3445311e-04  -1.7162743e-04  -1.4792019e-04  -2.8373869e-04  -2.3241889e-04  -8.7384267e-05  -2.8913892e-04  -2.6361757e-04  -2.7293464e-04  -1.5152166e-04  -1.4207787e-04  -1.5804930e-04  -1.9763384e-04  -1.4489360e-04  -5.4634234e-05  -5.1315048e-05  -1.1304120e-04  -1.5812771e-04  -1.7169569e-04  -1.4658523e-04  -1.4264555e-04  -1.7355887e-04  -1.6711907e-04   3.3060681e-05  -5.1062823e-05  -5.8772007e-05  -1.4175003e-04  -1.2847513e-04  -2.1739690e-04  -1.5660114e-04   4.7452903e-05  -2.3912874e-04  -9.9233844e-05  -3.7697231e-04  -1.9223228e-04  -3.3786842e-04  -6.0808741e-05   3.8329944e-04   5.9628996e-04  -1.2580957e-04  -1.2554405e-04   5.0914456e-05   1.0729460e-04   2.5536307e-04   6.8495297e-04   3.5600136e-04  -8.1976605e-05   1.3274625e-04  -5.9455219e-05  -6.9785512e-05  -8.3454415e-05  -5.3595875e-05  -3.0329102e-04  -1.3559052e-04  -2.8701052e-04  -1.5258514e-04  -5.3599656e-05  -1.4632839e-04  -1.0271861e-04   1.8580336e-04   2.2325798e-04  -2.9937787e-04  -1.9711722e-04  -1.4544383e-04   1.0602984e-04   1.6633854e-04   2.9210568e-04   5.4296101e-05  -2.4585349e-04   1.2140818e-03   8.6433794e-04   1.9803467e-03   2.6496597e-03   1.4078417e-03  -9.8416106e-04   5.9489348e-03   5.2160639e-03   9.5686992e-04  -1.6459082e-03  -1.5285951e-03  -2.2776137e-03   8.5548025e-04   4.1031924e-03   6.7260327e-03  -3.1233045e-04  -2.1924151e-03  -1.4245014e-03  -5.2303232e-04  -1.5733279e-03  -5.0293093e-04   1.5767380e-03  -1.1588514e-04   1.0982624e-03   4.4497189e-04  -1.1579197e-04  -1.7292461e-04  -1.1696723e-04   4.2316549e-03   4.9532137e-03   4.4998163e-03   3.1775725e-04   3.0416621e-04  -1.4734879e-04   3.0055855e-03   5.6562973e-03   1.7886420e-03  -4.8004262e-04  -1.2725823e-04  -1.0673465e-04  -1.5979383e-04  -1.9709942e-04  -9.4293284e-05  -1.2966490e-04  -1.0682556e-04  -4.5192767e-05  -1.6238996e-04  -1.8494580e-04  -2.3539832e-04  -1.9442969e-04  -6.6147428e-05  -6.3600144e-05  -1.4050899e-04  -2.7283956e-04  -1.5201352e-04  -1.4319362e-04  -1.4819788e-04  -2.0091852e-04  -1.2623147e-04  -1.7525569e-04  -9.6240325e-05  -1.9380274e-04  -1.5804072e-04  -1.1412653e-04  -1.2974731e-04  -1.2311425e-04  -4.7341043e-05   7.0235591e-05   8.5862543e-06  -2.4174932e-05  -1.9008005e-05  -8.4077243e-05   1.3083964e-05  -6.3134920e-05  -2.5088784e-05  -2.3156276e-05  -1.8332848e-04  -1.9938692e-04  -1.5260357e-04  -2.4622365e-04  -4.9214796e-05  -1.3721448e-04  -1.5898824e-04  -6.9476530e-05  -2.2088613e-04  -1.2519654e-04  -1.8595304e-04  -1.9512264e-04  -2.1978739e-04  -3.3017553e-04  -3.2473946e-04  -2.0899182e-04  -5.7309690e-06  -5.2660633e-06  -1.2925944e-04  -1.1179888e-04   4.0417627e-07  -1.0399648e-05  -5.0324951e-06  -7.2641378e-05   1.8074782e-05  -2.2475305e-05  -7.7435324e-06  -1.2898778e-05  -1.3045888e-04   1.2885462e-04  -6.0505930e-05   2.7146341e-05   3.8045213e-05  -4.6166803e-05   7.7274469e-07  -2.0646853e-04  -1.5361405e-04  -3.8569791e-05  -1.9903512e-04  -1.2991851e-04  -2.2888245e-04  -2.4045664e-04  -1.7536456e-04  -1.0388205e-04  -1.3848978e-04   1.0868666e-04  -1.3569605e-04  -1.3597268e-04  -1.9132964e-04  -9.2901021e-05   1.9426405e-05  -9.9444768e-07  -2.6737283e-04  -2.8126697e-04  -1.0513311e-04  -1.2810804e-04  -1.1597485e-04  -1.7003567e-04  -1.2348881e-04  -1.8411610e-04  -1.1088309e-04  -2.1305690e-04  -1.6357263e-04  -9.4650478e-05  -1.3812747e-04  -8.9196076e-05  -1.3461242e-04  -2.6472212e-05  -1.8165285e-04  -1.1317301e-04  -7.4167570e-05  -2.6879351e-05  -9.4082342e-05  -2.1568287e-04  -6.3176196e-05   6.0168438e-05  -2.5064566e-04  -2.0948775e-04  -9.8998756e-05  -3.9160438e-04  -4.7359739e-05  -2.1307252e-04  -2.3914400e-04  -3.3517687e-04  -1.3166756e-04  -2.1953386e-04  -5.2108498e-04  -2.9816380e-04  -1.3171906e-04  -2.2621039e-04  -6.2871230e-05  -2.7741299e-04  -2.3158094e-04  -2.4976899e-04  -3.2129898e-04  -1.8242369e-04  -7.7291691e-05  -2.3335007e-05  -3.1522597e-05  -1.0004510e-04  -7.9643930e-05  -1.1988177e-04  -2.3104093e-04  -1.6767372e-04  -8.8064804e-05  -1.4592452e-04  -1.0466614e-04  -1.5345849e-04  -7.9623206e-05  -1.8898856e-04  -1.1321521e-04  -1.4958998e-04  -2.2999404e-04  -1.6532053e-04  -7.0374750e-05  -4.4734002e-05  -4.8339093e-06  -7.3425492e-05   4.5846981e-06  -7.2423119e-05   8.1557697e-05   3.3875453e-04  -5.2394097e-05  -1.1393493e-05  -1.4394142e-04  -1.0568906e-04   2.0362173e-04   1.7888653e-04   1.3881638e-04  -4.2439138e-05  -1.0078469e-04  -8.8060085e-05  -7.3710530e-05  -1.3958756e-04  -1.6233715e-04  -4.2325940e-05  -8.4366505e-05  -7.7626169e-05  -6.1233366e-05  -1.5547481e-04  -1.4725697e-04  -1.3234669e-04   1.1385852e-04   2.9143894e-04   2.2471372e-04  -9.4451490e-05  -8.2617130e-05  -2.1367820e-05   1.0231333e-04   1.2765170e-04   6.2066940e-05  -2.3585310e-05  -2.4149170e-04  -3.3466965e-04  -2.0217535e-04  -3.0115161e-04  -1.1670499e-04  -8.3255749e-05  -7.3664735e-04   6.5055283e-05  -7.5079475e-05  -1.5090095e-04  -2.8868897e-04  -1.9270217e-04  -2.6791846e-04  -3.9363008e-04  -7.7466716e-04  -2.8017544e-04  -2.0519675e-04  -1.5452477e-04  -1.2987580e-04  -2.0405540e-04  -2.0745117e-04  -1.9643504e-04  -1.3809489e-04  -2.9225657e-04   3.1473234e-06  -1.4383710e-04  -1.7351733e-04  -1.0813182e-04   2.1641655e-04   3.2394438e-03   1.3635936e-03  -9.5422471e-05  -4.2011367e-05   3.6653755e-05   7.9055438e-04   1.3482056e-03  -1.3912950e-05  -1.0582051e-05   6.1134066e-05   5.5443749e-05   1.2617596e-04   8.9135148e-05   3.6615551e-05   1.7896510e-05  -2.6737347e-04  -6.9264268e-05   7.7921120e-05   1.0262293e-04   5.8214814e-05  -2.4707747e-05  -3.2267334e-05  -1.1783080e-04  -2.9744186e-04   7.3806309e-06   7.5730015e-05  -8.4801140e-06  -4.1968797e-05   7.8006037e-06   1.2821291e-04   7.4904569e-05   7.4324712e-05   1.6690413e-04   6.7415008e-05   9.3397174e-05   5.8976580e-05   8.2647098e-05  -2.3850369e-04  -5.1528835e-04  -3.7769185e-04   9.9058684e-06   4.4551467e-05   7.1932317e-06  -1.9400299e-04  -4.5392326e-04  -1.1535076e-04   8.6501093e-05   8.3153296e-05   3.0334027e-04  -2.0659651e-04   6.5113124e-05  -1.8078000e-04   1.2516227e-04   1.3954725e-05   4.7745999e-04   7.5772082e-05   1.3222607e-04   6.1314408e-04   4.5952593e-04   5.2436887e-04   6.1934240e-04  -1.0660393e-04   1.3496528e-04  -3.2777991e-05  -1.3864901e-04   3.2833714e-04   3.5282163e-04   2.2369858e-04   9.3879658e-05  -2.9307181e-05   2.8558670e-04   7.9509441e-05   1.8676695e-04  -4.4618842e-05   1.4165884e-04   5.7907348e-05   4.7391550e-04   4.4504679e-04  -6.5911215e-05  -2.4223703e-04   4.0003834e-04  -1.1542021e-04   2.2169688e-04   1.2813219e-04   5.2590478e-04
  -7.8512597e-05  -1.1221232e-04  -9.2808546e-05  -1.6761997e-04   9.6012809e-06  -1.1918029e-04  -2.3030488e-04  -3.1641982e-04  -1.8681105e-04  -1.6323049e-04  -3.0376110e-04  -2.5023317e-04  -8.7955448e-05  -2.8589450e-04  -2.6714032e-04  -2.9354449e-04  -1.6318569e-04  -1.5698418e-04  -1.7502656e-04  -2.2119717e-04  -1.6392312e-04  -6.9419839e-05  -6.5089779e-05  -1.3415092e-04  -1.7249888e-04  -1.8661193e-04  -1.6414889e-04  -1.5824537e-04  -1.7499062e-04  -1.6221473e-04   2.0752033e-05  -6.0461907e-05  -6.3671585e-05  -1.5011704e-04  -1.3361316e-04  -2.2624935e-04  -1.5961696e-04   3.5588384e-05  -2.3555616e-04  -8.5305445e-05  -3.7370402e-04  -1.7183202e-04  -3.4649800e-04  -3.6603645e-05   4.1551296e-04   6.6452007e-04  -1.0280441e-04  -8.4646760e-05   9.4036672e-05   1.5769273e-04   3.1236690e-04   7.6440165e-04   3.8936384e-04  -4.1325332e-05   1.6150949e-04  -4.7191954e-05  -5.1988324e-05  -5.2897644e-05  -3.8136918e-05  -3.0865046e-04  -1.3234440e-04  -2.7689963e-04  -1.3187515e-04  -4.2264129e-05  -1.4007520e-04  -8.4580160e-05   1.9728224e-04   2.8524134e-04  -2.6389188e-04  -2.0283255e-04  -1.5569978e-04   1.2882451e-04   1.8389068e-04   3.1728353e-04   6.6651583e-05  -2.1912792e-04   1.2810280e-03   9.5638602e-04   1.9334936e-03   2.7036684e-03   1.4059363e-03  -9.9020296e-04   6.5028121e-03   6.1309663e-03   1.0230924e-03  -1.6884988e-03  -1.4980790e-03  -2.2359607e-03   8.8067520e-04   4.3806212e-03   7.4003631e-03  -3.5112178e-04  -2.2975081e-03  -1.4256973e-03  -4.8342264e-04  -1.5478231e-03  -4.8765047e-04   1.5605094e-03  -1.2472389e-04   1.1137857e-03   4.2664299e-04  -1.0980870e-04  -1.5183988e-04  -1.2685447e-04   4.6278519e-03   5.4745625e-03   4.8645767e-03   3.4775499e-04   3.2985689e-04  -1.0995459e-04   3.4790848e-03   6.1867442e-03   1.8401828e-03  -6.5351367e-04  -1.3738327e-04  -1.0843749e-04  -1.6080791e-04  -1.9915274e-04  -1.0527011e-04  -1.3358098e-04  -1.1546693e-04  -4.3627224e-05  -1.5826664e-04  -1.8121647e-04  -2.3150649e-04  -1.9488327e-04  -6.1401866e-05  -6.3482020e-05  -1.5767784e-04  -2.6543727e-04  -1.5086914e-04  -1.4630891e-04  -1.5068179e-04  -2.0576600e-04  -1.2866154e-04  -1.7794692e-04  -1.0121253e-04  -1.9560998e-04  -1.4905750e-04  -1.1078834e-04  -1.2788013e-04  -1.1754440e-04  -6.1323566e-05   6.9351153e-05  -1.4981555e-05  -2.4469624e-05  -1.6592211e-05  -8.2866595e-05   4.4837985e-06  -7.5939477e-05  -2.9581840e-05  -2.5672076e-05  -1.7908267e-04  -1.9251447e-04  -1.4801947e-04  -2.3500861e-04  -4.7591376e-05  -1.3314413e-04  -1.4553837e-04  -4.6516268e-05  -2.0924278e-04  -1.0840687e-04  -1.7174911e-04  -1.8107627e-04  -2.1731417e-04  -3.2803278e-04  -3.2677279e-04  -1.9058519e-04   9.0859423e-06   5.2463112e-06  -1.2685746e-04  -9.7320537e-05   1.1328103e-05  -4.3236627e-06  -5.4677880e-07  -5.7406976e-05   3.7434284e-05  -1.0828144e-05   7.2730785e-06   3.0421437e-06  -1.4222925e-04   1.4403784e-04  -7.7452595e-05   3.5636647e-05   4.7184602e-05  -4.4811719e-05   2.3125065e-06  -2.1644880e-04  -1.5667885e-04  -3.3975287e-05  -2.0651257e-04  -1.3099205e-04  -2.3199569e-04  -2.3712228e-04  -1.8321751e-04  -1.0360037e-04  -1.2260698e-04   1.3492585e-04  -1.2859953e-04  -1.2865756e-04  -1.8248751e-04  -8.6281687e-05   3.2005931e-05   2.4844432e-05  -2.5590775e-04  -2.6628817e-04  -1.0056716e-04  -1.3121612e-04  -1.1377368e-04  -1.6777124e-04  -1.2232628e-04  -1.8130067e-04  -1.1345906e-04  -2.1084892e-04  -1.5862403e-04  -8.7779933e-05  -1.3792539e-04  -8.2408393e-05  -1.3512909e-04  -2.1061472e-05  -1.8719509e-04  -1.1489833e-04  -7.4719796e-05  -2.4622483e-05  -9.6691309e-05  -2.1491833e-04  -6.2117467e-05   6.1132506e-05  -2.5961231e-04  -2.1361615e-04  -1.1265498e-04  -3.9636388e-04  -5.8926456e-05  -2.0814054e-04  -2.0978545e-04  -2.8784187e-04  -1.0236789e-04  -2.1333983e-04  -5.1931404e-04  -2.8702856e-04  -1.2249911e-04  -2.0459134e-04  -5.2259495e-05  -2.6619553e-04  -2.1913509e-04  -2.6670243e-04  -3.4358437e-04  -1.9118411e-04  -8.5867986e-05  -4.7116533e-05  -4.2393187e-05  -1.2973569e-04  -8.8703326e-05  -1.2411309e-04  -2.3654252e-04  -1.7746298e-04  -7.8689863e-05  -1.2993225e-04  -1.7135522e-04  -1.8120760e-04  -8.8506738e-05  -1.9218662e-04  -1.1176699e-04  -1.5163769e-04  -2.4208918e-04  -2.2262997e-04  -8.4487424e-05  -5.3155432e-05  -1.2083448e-05  -8.5874821e-05  -8.0600038e-06  -7.8674563e-05   1.1791096e-04   3.8476937e-04  -4.8882887e-05  -1.5176160e-05  -1.4135466e-04  -1.1009751e-04   2.0814433e-04   2.1046737e-04   1.7745007e-04  -3.1419296e-05  -1.0200993e-04  -9.0636184e-05  -7.7979198e-05  -1.4814320e-04  -1.6951299e-04  -4.9668199e-05  -9.2106533e-05  -8.9710862e-05  -5.3869897e-05  -1.6057194e-04  -1.5657016e-04  -1.3995991e-04   1.3733505e-04   3.2442049e-04   2.2258577e-04  -1.0172094e-04  -8.5456336e-05  -1.5790982e-05   1.2158884e-04   1.5818330e-04   8.0200650e-05  -4.0039210e-05  -2.5508077e-04  -3.4000909e-04  -2.0321507e-04  -2.9290481e-04  -1.3105953e-04  -8.0458020e-05  -7.4475343e-04   8.9561814e-05  -6.2874078e-05  -1.2650086e-04  -2.7399034e-04  -1.8440989e-04  -2.7486024e-04  -3.9578668e-04  -7.9777432e-04  -2.5308360e-04  -1.8686949e-04  -1.5036451e-04  -1.3301769e-04  -2.0012504e-04  -2.2028217e-04  -2.0674367e-04  -1.4430745e-04  -2.9864588e-04   1.0320079e-05  -1.4999622e-04  -1.8559494e-04  -1.1405375e-04   2.0907592e-04   3.3076519e-03   1.3857326e-03  -9.9835383e-05  -4.4584667e-05   4.8800078e-05   8.2706685e-04   1.4340253e-03  -1.6651592e-05  -3.9749677e-05   5.6967786e-05   6.0675586e-05   1.3846742e-04   9.6889252e-05   3.0444585e-05   1.2723518e-05  -2.5890258e-04  -3.9722392e-05   8.8767844e-05   1.0538366e-04   6.4213531e-05  -4.0701553e-05  -2.6711342e-05  -1.1234558e-04  -2.7844651e-04   2.3823921e-05   7.9756849e-05  -1.3740521e-05  -4.7967448e-05  -1.4907833e-06   1.3346219e-04   8.1472578e-05   7.3085907e-05   1.8048095e-04   8.6651456e-05   9.7812975e-05   6.2865838e-05   9.0470856e-05  -2.3254748e-04  -5.3277149e-04  -3.9423824e-04   1.2492065e-05   4.8317423e-05   9.6915654e-06  -1.9204043e-04  -4.6710606e-04  -1.2435503e-04   8.2450350e-05   1.0833764e-04   3.1772159e-04  -1.7836662e-04   9.3316730e-05  -1.4866457e-04   1.5181276e-04   2.9768626e-05   4.3340468e-04   9.3894310e-05   1.6555430e-04   6.4811619e-04   4.8898268e-04   5.2599170e-04   6.0688858e-04  -8.6705282e-05   1.6806482e-04  -1.6310502e-05  -1.0301581e-04   3.4330455e-04   3.8832080e-04   2.5489277e-04   1.1622652e-04  -8.0541522e-06   3.0618530e-04   9.1670964e-05   2.0809865e-04  -2.3502660e-05   1.5757139e-04   5.0295903e-05   4.4187321e-04   4.3762342e-04  -3.7807880e-05  -2.3307178e-04   4.0456431e-04  -1.1375500e-04   2.1048879e-04   1.3262226e-04   5.3107410e-04
  -9.8431904e-05  -1.2776570e-04  -1.1093312e-04  -1.8770101e-04  -6.6415631e-06  -1.3397177e-04  -2.2189369e-04  -2.9260541e-04  -1.9934609e-04  -1.7640472e-04  -3.1949898e-04  -2.6477949e-04  -8.7651495e-05  -2.7795331e-04  -2.6672379e-04  -3.1011425e-04  -1.7261013e-04  -1.6968064e-04  -1.8951586e-04  -2.4187301e-04  -1.8067441e-04  -8.3329599e-05  -7.8101633e-05  -1.5370111e-04  -1.8410823e-04  -1.9873032e-04  -1.7943211e-04  -1.7168236e-04  -1.7408908e-04  -1.5335605e-04   7.2095236e-06  -6.9063742e-05  -6.7571097e-05  -1.5643220e-04  -1.3649777e-04  -2.3217610e-04  -1.6017285e-04   2.2972022e-05  -2.2467694e-04  -6.8072347e-05  -3.5813179e-04  -1.4331633e-04  -3.4523399e-04  -9.4314060e-06   4.4602474e-04   7.2474162e-04  -7.4114755e-05  -3.8060358e-05   1.3982716e-04   2.0915514e-04   3.7015990e-04   8.4487307e-04   4.2731862e-04   6.8282056e-06   1.8977512e-04  -3.1770481e-05  -3.0704809e-05  -1.8156067e-05  -1.9861676e-05  -3.0716938e-04  -1.2519847e-04  -2.5830887e-04  -1.0623640e-04  -2.8492388e-05  -1.3004894e-04  -6.4372323e-05   2.0794455e-04   3.5108346e-04  -2.1762429e-04  -2.0436323e-04  -1.6347757e-04   1.5111687e-04   2.0108329e-04   3.4358781e-04   7.9891506e-05  -1.8463539e-04   1.3343251e-03   1.0403823e-03   1.8829757e-03   2.7433866e-03   1.4014279e-03  -9.8889544e-04   7.0468302e-03   7.0397956e-03   1.0903712e-03  -1.7101246e-03  -1.4545105e-03  -2.1804049e-03   8.9548870e-04   4.6222692e-03   8.0365477e-03  -3.7152369e-04  -2.3761432e-03  -1.4100712e-03  -4.3798572e-04  -1.5111681e-03  -4.6643919e-04   1.5477117e-03  -1.2808477e-04   1.1326073e-03   4.1587886e-04  -9.8934645e-05  -1.2331122e-04  -1.3191513e-04   4.9921603e-03   5.9653588e-03   5.1983390e-03   3.7984257e-04   3.5617225e-04  -6.5748202e-05   3.9372280e-03   6.6853799e-03   1.8833593e-03  -8.1120958e-04  -1.4386383e-04  -1.0799898e-04  -1.5742235e-04  -1.9746195e-04  -1.1257411e-04  -1.3403386e-04  -1.2126605e-04  -4.2520620e-05  -1.5086044e-04  -1.7293360e-04  -2.2216341e-04  -1.9109522e-04  -5.6017561e-05  -6.2756812e-05  -1.7111101e-04  -2.5200082e-04  -1.4605410e-04  -1.4475718e-04  -1.4916654e-04  -2.0538330e-04  -1.2804497e-04  -1.7636492e-04  -1.0321415e-04  -1.9397524e-04  -1.3691800e-04  -1.0526295e-04  -1.2260695e-04  -1.0970741e-04  -7.2815448e-05   6.6243602e-05  -3.7257893e-05  -2.3750120e-05  -1.3283615e-05  -8.0385877e-05  -3.8774071e-06  -8.5810838e-05  -3.1047944e-05  -2.8250232e-05  -1.7231866e-04  -1.8251445e-04  -1.4194373e-04  -2.2065897e-04  -4.6694334e-05  -1.2650536e-04  -1.3176947e-04  -2.2769575e-05  -1.9435898e-04  -8.8919664e-05  -1.5404396e-04  -1.6247838e-04  -2.1273058e-04  -3.2311884e-04  -3.2890402e-04  -1.6886110e-04   2.5041474e-05   1.5700982e-05  -1.2245004e-04  -8.0389709e-05   2.3361538e-05  -4.4760391e-07   3.6209252e-06  -4.2600807e-05   5.6517346e-05   1.9753544e-06   2.3130122e-05   2.0566320e-05  -1.5195950e-04   1.5596710e-04  -9.4457731e-05   4.3430764e-05   5.6260397e-05  -4.1948311e-05   2.9858230e-06  -2.2496943e-04  -1.5860601e-04  -2.8133740e-05  -2.1013886e-04  -1.3015518e-04  -2.3069085e-04  -2.2995191e-04  -1.8678728e-04  -1.0124451e-04  -1.0178386e-04   1.5930600e-04  -1.1930836e-04  -1.1906594e-04  -1.7047970e-04  -7.8227228e-05   4.4315852e-05   5.2309242e-05  -2.3622290e-04  -2.4617277e-04  -9.4494187e-05  -1.3102226e-04  -1.0883505e-04  -1.6231644e-04  -1.1875715e-04  -1.7406357e-04  -1.1333987e-04  -2.0516065e-04  -1.5139267e-04  -7.9279415e-05  -1.3463368e-04  -7.4607054e-05  -1.3199881e-04  -1.7971622e-05  -1.8922215e-04  -1.1416939e-04  -7.3661666e-05  -2.2474272e-05  -9.7465907e-05  -2.0914702e-04  -5.9215215e-05   5.8781556e-05  -2.6339272e-04  -2.1299898e-04  -1.2303276e-04  -3.9066782e-04  -7.1329738e-05  -1.9781303e-04  -1.7348759e-04  -2.3000459e-04  -6.4229731e-05  -2.0012008e-04  -5.0415245e-04  -2.6633650e-04  -1.0801303e-04  -1.7727547e-04  -4.1207752e-05  -2.4441912e-04  -2.0033098e-04  -2.7903302e-04  -3.6065708e-04  -1.9360412e-04  -9.2032982e-05  -6.9181520e-05  -5.1901508e-05  -1.5572242e-04  -9.4859820e-05  -1.2480646e-04  -2.3950618e-04  -1.8243362e-04  -6.7846962e-05  -1.1282107e-04  -2.4097962e-04  -2.0685898e-04  -9.6434208e-05  -1.9222199e-04  -1.0912773e-04  -1.5228858e-04  -2.5327066e-04  -2.7779947e-04  -9.6309881e-05  -6.0007731e-05  -1.8073859e-05  -9.5963399e-05  -1.9444707e-05  -8.3367249e-05   1.5392973e-04   4.2718696e-04  -4.4089148e-05  -1.7959085e-05  -1.3582735e-04  -1.1256449e-04   2.1150352e-04   2.4112232e-04   2.1534702e-04  -1.9003727e-05  -1.0117200e-04  -9.1355119e-05  -8.0299355e-05  -1.5422079e-04  -1.7397165e-04  -5.4925266e-05  -9.7950126e-05  -9.9038485e-05  -4.4398051e-05  -1.6320070e-04  -1.6392434e-04  -1.4551328e-04   1.6044564e-04   3.5659248e-04   2.2025698e-04  -1.0700535e-04  -8.7065222e-05  -9.2666001e-06   1.4068342e-04   1.8879040e-04   1.0016869e-04  -5.4175989e-05  -2.6578757e-04  -3.4345357e-04  -2.0185379e-04  -2.8150367e-04  -1.4359899e-04  -7.6350345e-05  -7.4197873e-04   1.1651084e-04  -4.9567094e-05  -1.0046413e-04  -2.5515104e-04  -1.7323301e-04  -2.8083226e-04  -3.9215958e-04  -8.0835636e-04  -2.2259973e-04  -1.6655494e-04  -1.4398251e-04  -1.3469313e-04  -1.9377749e-04  -2.3183465e-04  -2.1557319e-04  -1.4896937e-04  -3.0341607e-04   1.7750500e-05  -1.5540462e-04  -1.9575983e-04  -1.2148236e-04   2.0413188e-04   3.3461287e-03   1.4034104e-03  -1.0260507e-04  -4.5912215e-05   6.1955861e-05   8.5736734e-04   1.5191780e-03  -1.6873188e-05  -6.5525135e-05   5.5111576e-05   6.7812430e-05   1.5362789e-04   1.0723131e-04   2.6286179e-05   9.6815450e-06  -2.4469931e-04  -8.6467422e-06   1.0118729e-04   1.0967820e-04   7.3132224e-05  -5.4692402e-05  -2.0773396e-05  -1.0592442e-04  -2.5171464e-04   4.4389428e-05   8.6235262e-05  -1.5481513e-05  -5.0504415e-05  -8.4779966e-06   1.3890397e-04   8.9877609e-05   7.3392150e-05   1.9437050e-04   1.0746134e-04   1.0269369e-04   6.8818254e-05   9.9446074e-05  -2.2168810e-04  -5.4852447e-04  -4.0597159e-04   1.6445689e-05   5.2720796e-05   1.2328194e-05  -1.8720167e-04  -4.7568269e-04  -1.2929613e-04   7.8274081e-05   1.3068624e-04   3.2548067e-04  -1.4840064e-04   1.1722331e-04  -1.1527067e-04   1.7680091e-04   4.2881473e-05   3.8258994e-04   1.0961469e-04   1.9606362e-04   6.7334227e-04   5.1170519e-04   5.1923100e-04   5.8291407e-04  -7.1279958e-05   1.9628705e-04  -2.5481374e-06  -7.0241844e-05   3.5173759e-04   4.1865332e-04   2.8434245e-04   1.3472104e-04   1.2285802e-05   3.2054598e-04   9.9923588e-05   2.2688271e-04  -3.8610087e-06   1.6977333e-04   3.9720554e-05   4.0525542e-04   4.2408883e-04  -8.9756974e-06  -2.2259316e-04   4.0310573e-04  -1.1359249e-04   1.9735730e-04   1.3400456e-04   5.2879664e-04
  -1.1715392e-04  -1.4160516e-04  -1.2743549e-04  -2.0557878e-04  -2.2768223e-05  -1.4697679e-04  -2.1035421e-04  -2.6400843e-04  -2.0881540e-04  -1.8697840e-04  -3.3042614e-04  -2.7554617e-04  -8.6451812e-05  -2.6558969e-04  -2.6272464e-04  -3.2213443e-04  -1.7944833e-04  -1.7976111e-04  -2.0100917e-04  -2.5894681e-04  -1.9460954e-04  -9.5980024e-05  -8.9909158e-05  -1.7111835e-04  -1.9259276e-04  -2.0764584e-04  -1.9194428e-04  -1.8248855e-04  -1.7118458e-04  -1.4095006e-04  -7.3416073e-06  -7.6621210e-05  -7.0357222e-05  -1.6048656e-04  -1.3716909e-04  -2.3531684e-04  -1.5840104e-04   1.0112490e-05  -2.0666907e-04  -4.7995451e-05  -3.3084722e-04  -1.0755493e-04  -3.3402170e-04   1.9486210e-05   4.7411383e-04   7.7450639e-04  -4.0941264e-05   1.2082336e-05   1.8644376e-04   2.5948937e-04   4.2678064e-04   9.2456189e-04   4.7016826e-04   6.0721747e-05   2.1638896e-04  -1.3780653e-05  -6.8308081e-06   1.9313675e-05   6.8360081e-07  -2.9896779e-04  -1.1443779e-04  -2.3155571e-04  -7.6687134e-05  -1.2739169e-05  -1.1664845e-04  -4.3034874e-05   2.1807866e-04   4.1808352e-04  -1.6210969e-04  -2.0162397e-04  -1.6849036e-04   1.7219228e-04   2.1767127e-04   3.7104820e-04   9.3498596e-05  -1.4397505e-04   1.3744618e-03   1.1140795e-03   1.8378593e-03   2.7749359e-03   1.3983869e-03  -9.8102780e-04   7.5691858e-03   7.9092387e-03   1.1608966e-03  -1.7109151e-03  -1.4018047e-03  -2.1166059e-03   9.0106372e-04   4.8244174e-03   8.6109898e-03  -3.6979701e-04  -2.4250917e-03  -1.3792139e-03  -3.8926224e-04  -1.4662926e-03  -4.4062033e-04   1.5422996e-03  -1.2540783e-04   1.1567952e-03   4.1633951e-04  -8.3100173e-05  -8.8521895e-05  -1.3103593e-04   5.3098631e-03   6.4147285e-03   5.4941717e-03   4.1312440e-04   3.8221841e-04  -1.4902239e-05   4.3608911e-03   7.1338876e-03   1.9186754e-03  -9.4174142e-04  -1.4639585e-04  -1.0546928e-04  -1.4984301e-04  -1.9237399e-04  -1.1582136e-04  -1.3096016e-04  -1.2441279e-04  -4.2435295e-05  -1.4070639e-04  -1.6061579e-04  -2.0789316e-04  -1.8320778e-04  -5.0421088e-05  -6.1569478e-05  -1.8056727e-04  -2.3353109e-04  -1.3788482e-04  -1.3849978e-04  -1.4360519e-04  -1.9969314e-04  -1.2435050e-04  -1.7075000e-04  -1.0211894e-04  -1.8917070e-04  -1.2231514e-04  -9.7774015e-05  -1.1413362e-04  -9.9969522e-05  -8.1294850e-05   6.0998500e-05  -5.7346041e-05  -2.1984885e-05  -9.1852420e-06  -7.6695901e-05  -1.1607506e-05  -9.2310470e-05  -2.9158632e-05  -3.0655668e-05  -1.6376718e-04  -1.6997567e-04  -1.3503661e-04  -2.0403708e-04  -4.7217519e-05  -1.1774336e-04  -1.1855663e-04   8.5743127e-07  -1.7709270e-04  -6.7741724e-05  -1.3362361e-04  -1.4001133e-04  -2.0631660e-04  -3.1580066e-04  -3.3194274e-04  -1.4489751e-04   4.1535914e-05   2.5419895e-05  -1.1631750e-04  -6.1855928e-05   3.6050041e-05   5.4292384e-07   7.0678679e-06  -2.9069081e-05   7.4512021e-05   1.5453877e-05   3.9052736e-05   3.9071596e-05  -1.5918473e-04   1.6443140e-04  -1.1067313e-04   5.0073960e-05   6.4913841e-05  -3.7484224e-05   2.7274174e-06  -2.3178075e-04  -1.5957047e-04  -2.1224692e-05  -2.0985039e-04  -1.2753378e-04  -2.2533224e-04  -2.1948776e-04  -1.8597490e-04  -9.6915857e-05  -7.6710856e-05   1.8099364e-04  -1.0839379e-04  -1.0780413e-04  -1.5591837e-04  -6.9008778e-05   5.5850094e-05   8.0605533e-05  -2.0885663e-04  -2.2209027e-04  -8.7248280e-05  -1.2750673e-04  -1.0135983e-04  -1.5395641e-04  -1.1294558e-04  -1.6278055e-04  -1.1048294e-04  -1.9644186e-04  -1.4246731e-04  -6.9529900e-05  -1.2842075e-04  -6.6259444e-05  -1.2526704e-04  -1.7605770e-05  -1.8784132e-04  -1.1110321e-04  -7.1125767e-05  -2.0480165e-05  -9.6374448e-05  -1.9860978e-04  -5.4463494e-05   5.3091126e-05  -2.6200173e-04  -2.0774913e-04  -1.2896428e-04  -3.7417840e-04  -8.4103581e-05  -1.8227397e-04  -1.3100319e-04  -1.6293027e-04  -1.7382969e-05  -1.7977084e-04  -4.7602103e-04  -2.3646032e-04  -8.8393700e-05  -1.4470500e-04  -3.0048602e-05  -2.1193770e-04  -1.7559780e-04  -2.8611524e-04  -3.7223040e-04  -1.8912353e-04  -9.5387078e-05  -8.8117775e-05  -5.9502681e-05  -1.7656847e-04  -9.7420913e-05  -1.2183675e-04  -2.4007398e-04  -1.8208935e-04  -5.6017317e-05  -9.5246294e-05  -3.1120619e-04  -2.2929746e-04  -1.0313505e-04  -1.8911182e-04  -1.0539386e-04  -1.5148267e-04  -2.6312031e-04  -3.2884193e-04  -1.0528057e-04  -6.4977249e-05  -2.2312475e-05  -1.0327825e-04  -2.8972777e-05  -8.6151124e-05   1.8820291e-04   4.6463410e-04  -3.8108337e-05  -1.9385107e-05  -1.2744825e-04  -1.1282973e-04   2.1396572e-04   2.7014704e-04   2.5136321e-04  -5.4473341e-06  -9.8207277e-05  -9.0044282e-05  -8.0396095e-05  -1.5742249e-04  -1.7545312e-04  -5.7998642e-05  -1.0161758e-04  -1.0526910e-04  -3.3149723e-05  -1.6328626e-04  -1.6908240e-04  -1.4888364e-04   1.8244259e-04   3.8731470e-04   2.1822824e-04  -1.1014641e-04  -8.7422813e-05  -1.9883597e-06   1.5898182e-04   2.1856425e-04   1.2160775e-04  -6.5410537e-05  -2.7327851e-04  -3.4538615e-04  -1.9761380e-04  -2.6741387e-04  -1.5360837e-04  -7.1094331e-05  -7.2897726e-04   1.4626294e-04  -3.5089357e-05  -7.3319992e-05  -2.3279833e-04  -1.5976574e-04  -2.8598934e-04  -3.8306737e-04  -8.0733505e-04  -1.8990895e-04  -1.4505881e-04  -1.3527667e-04  -1.3498826e-04  -1.8538823e-04  -2.4172349e-04  -2.2243480e-04  -1.5174247e-04  -3.0612855e-04   2.5842106e-05  -1.5972386e-04  -2.0337091e-04  -1.3014142e-04   2.0115799e-04   3.3616105e-03   1.4175889e-03  -1.0349055e-04  -4.5601433e-05   7.5684589e-05   8.8129197e-04   1.6026096e-03  -1.4881206e-05  -8.6264915e-05   5.5887898e-05   7.6710608e-05   1.7117219e-04   1.1983368e-04   2.4444670e-05   8.9920722e-06  -2.2560342e-04   2.2569991e-05   1.1470369e-04   1.1536254e-04   8.4757610e-05  -6.6104134e-05  -1.4745287e-05  -9.9101662e-05  -2.1836695e-04   6.8089751e-05   9.5161522e-05  -1.3625006e-05  -4.9513704e-05  -1.2900225e-05   1.4442019e-04   9.9765133e-05   7.5435873e-05   2.0824166e-04   1.2904238e-04   1.0785679e-04   7.6609824e-05   1.0926389e-04  -2.0631976e-04  -5.6272472e-04  -4.1275501e-04   2.1649837e-05   5.7672558e-05   1.4925628e-05  -1.7985294e-04  -4.8001561e-04  -1.2990403e-04   7.4368705e-05   1.4926816e-04   3.2663494e-04  -1.1826800e-04   1.3554255e-04  -8.2476243e-05   1.9900495e-04   5.2055146e-05   3.2697156e-04   1.2216010e-04   2.2228084e-04   6.8848857e-04   5.2694129e-04   5.0481794e-04   5.4869594e-04  -6.1748702e-05   2.1823307e-04   7.5272422e-06  -4.2505442e-05   3.5362667e-04   4.4251107e-04   3.1115275e-04   1.4826776e-04   3.0532630e-05   3.2808821e-04   1.0368537e-04   2.4231172e-04   1.2893615e-05   1.7766139e-04   2.5853292e-05   3.6523761e-04   4.0493164e-04   1.9271116e-05  -2.1183411e-04   3.9581479e-04  -1.1592061e-04   1.8203501e-04   1.3197762e-04   5.2000946e-04
  -1.3404639e-04  -1.5326735e-04  -1.4180428e-04  -2.2068669e-04  -3.8249709e-05  -1.5772570e-04  -1.9632847e-04  -2.3181227e-04  -2.1489458e-04  -1.9454966e-04  -3.3614990e-04  -2.8211209e-04  -8.4328216e-05  -2.4920426e-04  -2.5560174e-04  -3.2921791e-04  -1.8341532e-04  -1.8689432e-04  -2.0908964e-04  -2.7180362e-04  -2.0528417e-04  -1.0701785e-04  -1.0010850e-04  -1.8588161e-04  -1.9769354e-04  -2.1305715e-04  -2.0128128e-04  -1.9027196e-04  -1.6666186e-04  -1.2558601e-04  -2.2635519e-05  -8.2924624e-05  -7.1952748e-05  -1.6212947e-04  -1.3576569e-04  -2.3587992e-04  -1.5450276e-04  -2.4645272e-06  -1.8207710e-04  -2.5644657e-05  -2.9308085e-04  -6.5784987e-05  -3.1336327e-04   4.8766589e-05   4.9920982e-04   8.1194269e-04  -4.7355540e-06   6.3384660e-05   2.3192440e-04   3.0645502e-04   4.8029775e-04   1.0015492e-03   5.1793619e-04   1.1826206e-04   2.4022368e-04   5.9646316e-06   1.8533496e-05   5.7814441e-05   2.2787548e-05  -2.8449736e-04  -1.0058663e-04  -1.9735157e-04  -4.4469380e-05   4.4058598e-06  -1.0047227e-04  -2.1580079e-05   2.2804943e-04   4.8335846e-04  -9.9301108e-05  -1.9473553e-04  -1.7056778e-04   1.9138254e-04   2.3346494e-04   3.9965430e-04   1.0694075e-04  -9.9194762e-05   1.4023676e-03   1.1756483e-03   1.8060477e-03   2.8041654e-03   1.4000906e-03  -9.6737578e-04   8.0569604e-03   8.7044392e-03   1.2367563e-03  -1.6914940e-03  -1.3438494e-03  -2.0498266e-03   8.9920223e-04   4.9853185e-03   9.0996543e-03  -3.4311433e-04  -2.4417592e-03  -1.3350506e-03  -3.3981588e-04  -1.4159486e-03  -4.1160363e-04   1.5467903e-03  -1.1650305e-04   1.1875554e-03   4.3100249e-04  -6.2469475e-05  -4.8951719e-05  -1.2330976e-04   5.5668844e-03   6.8135194e-03   5.7461215e-03   4.4645161e-04   4.0701787e-04   4.2311134e-05   4.7310611e-03   7.5137610e-03   1.9463567e-03  -1.0347625e-03  -1.4487216e-04  -1.0099025e-04  -1.3850799e-04  -1.8440199e-04  -1.1483923e-04  -1.2447296e-04  -1.2528886e-04  -4.3918714e-05  -1.2847680e-04  -1.4499727e-04  -1.8947930e-04  -1.7155777e-04  -4.5056395e-05  -6.0110416e-05  -1.8604093e-04  -2.1129927e-04  -1.2685207e-04  -1.2774866e-04  -1.3415296e-04  -1.8887070e-04  -1.1767823e-04  -1.6153070e-04  -9.7957477e-05  -1.8159278e-04  -1.0604467e-04  -8.8611347e-05  -1.0280974e-04  -8.8759823e-05  -8.6448154e-05   5.3824085e-05  -7.4528156e-05  -1.9175237e-05  -4.4262097e-06  -7.1902334e-05  -1.8364428e-05  -9.5233253e-05  -2.3794478e-05  -3.2639528e-05  -1.5422551e-04  -1.5557719e-04  -1.2795191e-04  -1.8603792e-04  -4.9774630e-05  -1.0741160e-04  -1.0665437e-04   2.3499014e-05  -1.5838466e-04  -4.5975274e-05  -1.1138759e-04  -1.1455054e-04  -1.9837350e-04  -3.0647069e-04  -3.3650420e-04  -1.1983097e-04   5.7932689e-05   3.3754062e-05  -1.0880981e-04  -4.2641929e-05   4.8897587e-05  -1.8523962e-06   9.4262853e-06  -1.7511767e-05   9.0692270e-05   2.9097683e-05   5.4272477e-05   5.7908338e-05  -1.6349874e-04   1.6955556e-04  -1.2517881e-04   5.5196573e-05   7.2811696e-05  -3.1402131e-05   1.5491699e-06  -2.3658866e-04  -1.5975494e-04  -1.3441639e-05  -2.0577231e-04  -1.2332385e-04  -2.1649776e-04  -2.0640805e-04  -1.8091218e-04  -9.0802175e-05  -4.8322216e-05   1.9932208e-04  -9.6497603e-05  -9.5550942e-05  -1.3952340e-04  -5.8925054e-05   6.6136852e-05   1.0888355e-04  -1.7478198e-04  -1.9540232e-04  -7.9200750e-05  -1.2083665e-04  -9.1678869e-05  -1.4310400e-04  -1.0515222e-04  -1.4803953e-04  -1.0498644e-04  -1.8528321e-04  -1.3251470e-04  -5.8953073e-05  -1.1960013e-04  -5.7834228e-05  -1.1519993e-04  -2.0141471e-05  -1.8333702e-04  -1.0593866e-04  -6.7325144e-05  -1.8655902e-05  -9.3486884e-05  -1.8379527e-04  -4.7962025e-05   4.4276151e-05  -2.5563099e-04  -1.9818661e-04  -1.2939314e-04  -3.4701484e-04  -9.6644092e-05  -1.6190065e-04  -8.3414600e-05  -8.8400397e-05   3.7722646e-05  -1.5245899e-04  -4.3600971e-04  -1.9821609e-04  -6.4038509e-05  -1.0761697e-04  -1.9129694e-05  -1.6906153e-04  -1.4562686e-04  -2.8748000e-04  -3.7824356e-04  -1.7749191e-04  -9.5609613e-05  -1.0269003e-04  -6.4746217e-05  -1.9113652e-04  -9.5880753e-05  -1.1525066e-04  -2.3839763e-04  -1.7616186e-04  -4.3766860e-05  -7.7905231e-05  -3.7968367e-04  -2.4751243e-04  -1.0837833e-04  -1.8299822e-04  -1.0069760e-04  -1.4924554e-04  -2.7119416e-04  -3.7398638e-04  -1.1097438e-04  -6.7844932e-05  -2.4370937e-05  -1.0755394e-04  -3.6113299e-05  -8.6753753e-05   2.1936456e-04   4.9583142e-04  -3.1099157e-05  -1.9181806e-05  -1.1644782e-04  -1.1074794e-04   2.1577921e-04   2.9687553e-04   2.8447003e-04   8.9439685e-06  -9.3162675e-05  -8.6614344e-05  -7.8116905e-05  -1.5745794e-04  -1.7380435e-04  -5.8897402e-05  -1.0291775e-04  -1.0821612e-04  -2.0533707e-05  -1.6086677e-04  -1.7188320e-04  -1.5004796e-04   2.0260373e-04   4.1591093e-04   2.1694598e-04  -1.1108227e-04  -8.6563879e-05   5.8024193e-06   1.7588425e-04   2.4660546e-04   1.4405892e-04  -7.3333373e-05  -2.7728772e-04  -3.4612136e-04  -1.9003807e-04  -2.5108785e-04  -1.6044079e-04  -6.4824413e-05  -7.0658309e-04   1.7917574e-04  -1.9351195e-05  -4.5528906e-05  -2.0755359e-04  -1.4457720e-04  -2.9038926e-04  -3.6898310e-04  -7.9597093e-04  -1.5616884e-04  -1.2309185e-04  -1.2413190e-04  -1.3392547e-04  -1.7530327e-04  -2.4954349e-04  -2.2682581e-04  -1.5229501e-04  -3.0628051e-04   3.5016147e-05  -1.6259404e-04  -2.0781462e-04  -1.3958965e-04   1.9980373e-04   3.3613597e-03   1.4291855e-03  -1.0230049e-04  -4.3343500e-05   8.9585138e-05   8.9894717e-04   1.6832718e-03  -1.1016974e-05  -1.0065291e-04   5.9428879e-05   8.7074707e-05   1.9039461e-04   1.3418003e-04   2.5077820e-05   1.0715834e-05  -2.0269747e-04   5.2510263e-05   1.2871948e-04   1.2214990e-04   9.8666016e-05  -7.4543065e-05  -8.9220794e-06  -9.2396966e-05  -1.7981364e-04   9.3717956e-05   1.0635840e-04  -8.3267448e-06  -4.5198429e-05  -1.4683832e-05   1.4983330e-04   1.1065242e-04   7.9285884e-05   2.2172076e-04   1.5052690e-04   1.1305744e-04   8.5863264e-05   1.1951477e-04  -1.8710323e-04  -5.7555219e-04  -4.1467120e-04   2.7924423e-05   6.3021349e-05   1.7285691e-05  -1.7047661e-04  -4.8066798e-04  -1.2618578e-04   7.1066077e-05   1.6332637e-04   3.2152255e-04  -8.9476598e-05   1.4730725e-04  -5.2116713e-05   2.1739666e-04   5.6319512e-05   2.6854847e-04   1.3092294e-04   2.4293230e-04   6.9369722e-04   5.3421769e-04   4.8384216e-04   5.0601519e-04  -5.9094568e-05   2.3287527e-04   1.3170799e-05  -2.1627489e-05   3.4929681e-04   4.5881315e-04   3.3448064e-04   1.5608517e-04   4.5625335e-05   3.2858515e-04   1.0263275e-04   2.5370145e-04   2.5494512e-05   1.8084592e-04   8.5330563e-06   3.2290993e-04   3.8079234e-04   4.5620262e-05  -2.0179146e-04   3.8305857e-04  -1.2157663e-04   1.6428336e-04   1.2642915e-04   5.0590863e-04
  -1.4852405e-04  -1.6234964e-04  -1.5358567e-04  -2.3251540e-04  -5.2574196e-05  -1.6580314e-04  -1.8052875e-04  -1.9733883e-04  -2.1736265e-04  -1.9879478e-04  -3.3642509e-04  -2.8416444e-04  -8.1250303e-05  -2.2931211e-04  -2.4588038e-04  -3.3111229e-04  -1.8429887e-04  -1.9082876e-04  -2.1344501e-04  -2.7994650e-04  -2.1235982e-04  -1.1612260e-04  -1.0834417e-04  -1.9753517e-04  -1.9925826e-04  -2.1477545e-04  -2.0713557e-04  -1.9473201e-04  -1.6093347e-04  -1.0801508e-04  -3.8361175e-05  -8.7802205e-05  -7.2319781e-05  -1.6127774e-04  -1.3251112e-04  -2.3412344e-04  -1.4873123e-04  -1.4235222e-05  -1.5179030e-04  -1.6842873e-06  -2.4663283e-04  -1.9543819e-05  -2.8428202e-04   7.6946574e-05   5.2094694e-04   8.3589763e-04   3.2888562e-05   1.1333363e-04   2.7431124e-04   3.4788230e-04   5.2892350e-04   1.0739120e-03   5.7035836e-04   1.7714672e-04   2.6023739e-04   2.6462727e-05   4.4135274e-05   9.5496180e-05   4.5594966e-05  -2.6451118e-04  -8.4382588e-05  -1.5677595e-04  -1.0984348e-05   2.2243621e-05  -8.2285529e-05  -1.0388045e-06   2.3826739e-04   5.4408857e-04  -3.1451623e-05  -1.8401806e-04  -1.6966604e-04   2.0809111e-04   2.4834710e-04   4.2934898e-04   1.1971749e-04  -5.2674372e-05   1.4192533e-03   1.2237854e-03   1.7938183e-03   2.8361865e-03   1.4088259e-03  -9.4867948e-04   8.4968515e-03   9.3919769e-03   1.3197025e-03  -1.6529591e-03  -1.2842820e-03  -1.9846281e-03   8.9223291e-04   5.1053367e-03   9.4802598e-03  -2.8972720e-04  -2.4243469e-03  -1.2797699e-03  -2.9208264e-04  -1.3625699e-03  -3.8079592e-04   1.5621849e-03  -1.0156236e-04   1.2251511e-03   4.6195007e-04  -3.7436514e-05  -6.2727278e-06  -1.0810556e-04   5.7510795e-03   7.1548282e-03   5.9495326e-03   4.7849228e-04   4.2958687e-04   1.0548866e-04   5.0304878e-03   7.8079873e-03   1.9663633e-03  -1.0815810e-03  -1.3938351e-04  -9.4788904e-05  -1.2405995e-04  -1.7418528e-04  -1.0967398e-04  -1.1485336e-04  -1.2443417e-04  -4.7461169e-05  -1.1493736e-04  -1.2697465e-04  -1.6792027e-04  -1.5666530e-04  -4.0353955e-05  -5.8613041e-05  -1.8776861e-04  -1.8676183e-04  -1.1359078e-04  -1.1295327e-04  -1.2116337e-04  -1.7333680e-04  -1.0825580e-04  -1.4929230e-04  -9.0913415e-05  -1.7173255e-04  -8.8954115e-05  -7.8114988e-05  -8.9107978e-05  -7.6543824e-05  -8.8189796e-05   4.5038026e-05  -8.8303563e-05  -1.5354089e-05   8.4800795e-07  -6.6154479e-05  -2.3877504e-05  -9.4617598e-05  -1.5051694e-05  -3.3956825e-05  -1.4450396e-04  -1.4005043e-04  -1.2128453e-04  -1.6753840e-04  -5.4837697e-05  -9.6140340e-05  -9.6641069e-05   4.4373064e-05  -1.3920157e-04  -2.4753012e-05  -8.8305856e-05  -8.7122253e-05  -1.8921653e-04  -2.9554895e-04  -3.4294800e-04  -9.4794093e-05   7.3584488e-05   4.0130767e-05  -1.0033005e-04  -2.3695511e-05   6.1399392e-05  -7.9066329e-06   1.0391092e-05  -8.4368389e-06   1.0446120e-04   4.2396712e-05   6.8080863e-05   7.6412564e-05  -1.6456388e-04   1.7178842e-04  -1.3703673e-04   5.8542358e-05   7.9673814e-05  -2.3775155e-05  -4.6532301e-07  -2.3906163e-04  -1.5933737e-04  -4.9800330e-06  -1.9821010e-04  -1.1777897e-04  -2.0493920e-04  -1.9148615e-04  -1.7195211e-04  -8.3171109e-05  -1.7757629e-05   2.1382587e-04  -8.4293322e-05  -8.3014878e-05  -1.2208729e-04  -4.8296506e-05   7.4765638e-05   1.3627144e-04  -1.3537665e-04  -1.6758191e-04  -7.0738488e-05  -1.1136530e-04  -8.0235198e-05  -1.3027811e-04  -9.5722619e-05  -1.3061113e-04  -9.7086189e-05  -1.7238171e-04  -1.2223888e-04  -4.7992397e-05  -1.0861628e-04  -4.9774822e-05  -1.0227858e-04  -2.5504270e-05  -1.7615297e-04  -9.9021821e-05  -6.2537615e-05  -1.6993437e-05  -8.8972253e-05  -1.6542199e-04  -3.9917896e-05   3.2783134e-05  -2.4465842e-04  -1.8478730e-04  -1.2344122e-04  -3.0976141e-04  -1.0826513e-04  -1.3726870e-04  -3.2128572e-05  -8.6780492e-06   1.0030041e-04  -1.1863277e-04  -3.8584976e-04  -1.5282444e-04  -3.5627015e-05  -6.7042647e-05  -8.8227400e-06  -1.1657746e-04  -1.1135170e-04  -2.8290372e-04  -3.7888451e-04  -1.5882735e-04  -9.2488227e-05  -1.1193475e-04  -6.7325296e-05  -1.9867321e-04  -8.9962605e-05  -1.0526998e-04  -2.3465119e-04  -1.6464558e-04  -3.1715743e-05  -6.1523871e-05  -4.4415948e-04  -2.6065001e-04  -1.1199571e-04  -1.7414203e-04  -9.5211049e-05  -1.4571394e-04  -2.7708225e-04  -4.1178719e-04  -1.1312425e-04  -6.8497659e-05  -2.3912173e-05  -1.0869027e-04  -4.0426148e-05  -8.5005661e-05   2.4616667e-04   5.1964090e-04  -2.3288695e-05  -1.7188998e-05  -1.0321119e-04  -1.0631431e-04   2.1715395e-04   3.2069393e-04   3.1379019e-04   2.3809413e-05  -8.6208753e-05  -8.1067820e-05  -7.3456563e-05  -1.5418757e-04  -1.6899787e-04  -5.7729435e-05  -1.0175869e-04  -1.0784770e-04  -7.0210937e-06  -1.5609979e-04  -1.7226150e-04  -1.4908767e-04   2.2026608e-04   4.4168070e-04   2.1676658e-04  -1.0984757e-04  -8.4575558e-05   1.3826406e-05   1.9083768e-04   2.7206612e-04   1.6698073e-04  -7.7735297e-05  -2.7762748e-04  -3.4588823e-04  -1.7877738e-04  -2.3294636e-04  -1.6355946e-04  -5.7631361e-05  -6.7570334e-04   2.1556452e-04  -2.2745826e-06  -1.7480886e-05  -1.8001161e-04  -1.2816262e-04  -2.9395955e-04  -3.5049058e-04  -7.7567846e-04  -1.2246925e-04  -1.0123233e-04  -1.1042758e-04  -1.3145592e-04  -1.6380409e-04  -2.5489842e-04  -2.2827856e-04  -1.5033110e-04  -3.0336962e-04   4.5657539e-05  -1.6366450e-04  -2.0854988e-04  -1.4926476e-04   1.9996188e-04   3.3524007e-03   1.4391318e-03  -9.8904140e-05  -3.8940512e-05   1.0334093e-04   9.1073446e-04   1.7602891e-03  -5.5960068e-06  -1.0777374e-04   6.5667437e-05   9.8471151e-05   2.1043124e-04   1.4961105e-04   2.8194702e-05   1.4749944e-05  -1.7724238e-04   7.9802320e-05   1.4255664e-04   1.2963791e-04   1.1425433e-04  -7.9818049e-05  -3.5797293e-06  -8.6293345e-05  -1.3766676e-04   1.1994243e-04   1.1948993e-04   4.5221832e-08  -3.8005585e-05  -1.3933446e-05   1.5491587e-04   1.2197789e-04   8.4887611e-05   2.3443314e-04   1.7104223e-04   1.1800327e-04   9.6082907e-05   1.2972573e-04  -1.6493123e-04  -5.8719702e-04  -4.1202230e-04   3.5039986e-05   6.8572212e-05   1.9199986e-05  -1.5964428e-04  -4.7836851e-04  -1.1842492e-04   6.8609394e-05   1.7231642e-04   3.1077303e-04  -6.3364496e-05   1.5194688e-04  -2.5844642e-05   2.3112518e-04   5.5058327e-05   2.0925512e-04   1.3550599e-04   2.5704423e-04   6.8957856e-04   5.3338281e-04   4.5769824e-04   4.5703655e-04  -6.3772130e-05   2.3965152e-04   1.3927115e-05  -8.9320019e-06   3.3938288e-04   4.6680673e-04   3.5358680e-04   1.5778176e-04   5.6696897e-05   3.2220818e-04   9.6732680e-05   2.6052850e-04   3.2914155e-05   1.7918863e-04  -1.2199130e-05   2.7924544e-04   3.5244352e-04   6.8845661e-05  -1.9335737e-04   3.6539638e-04  -1.3116633e-04   1.4395656e-04   1.1745082e-04   4.8785287e-04
  -1.6006780e-04  -1.6852386e-04  -1.6239561e-04  -2.4062757e-04  -6.5259866e-05  -1.7086510e-04  -1.6370515e-04  -1.6199590e-04  -2.1611111e-04  -1.9948066e-04  -3.3116548e-04  -2.8151371e-04  -7.7194047e-05  -2.0653016e-04  -2.3411563e-04  -3.2770946e-04  -1.8197013e-04  -1.9139888e-04  -2.1387972e-04  -2.8301605e-04  -2.1561306e-04  -1.2301055e-04  -1.1432165e-04  -2.0569625e-04  -1.9724717e-04  -2.1273074e-04  -2.0930469e-04  -1.9567155e-04  -1.5441976e-04  -8.9111683e-05  -5.4161832e-05  -9.1124674e-05  -7.1455833e-05  -1.5791878e-04  -1.2769909e-04  -2.3034056e-04  -1.4137493e-04  -2.4702083e-05  -1.1699590e-04   2.3147235e-05  -1.9376365e-04   2.9410411e-05  -2.4826189e-04   1.0256438e-04   5.3919824e-04   8.4602454e-04   7.0253684e-05   1.5945083e-04   3.1174914e-04   3.8180264e-04   5.7111598e-04   1.1398483e-03   6.2689382e-04   2.3499559e-04   2.7553307e-04   4.6573516e-05   6.8647045e-05   1.3044850e-04   6.8142776e-05  -2.4001841e-04  -6.6737825e-05  -1.1123928e-04   2.2278128e-05   3.9994737e-05  -6.2980179e-05   1.7587656e-05   2.4915218e-04   5.9777200e-04   3.9030742e-05  -1.6997977e-04  -1.6586091e-04   2.2181684e-04   2.6226321e-04   4.6003129e-04   1.3140648e-04  -6.9868959e-06   1.4264984e-03   1.2577761e-03   1.8054745e-03   2.8749782e-03   1.4257651e-03  -9.2563687e-04   8.8761010e-03   9.9435536e-03   1.4109773e-03  -1.5968362e-03  -1.2262858e-03  -1.9246452e-03   8.8285077e-04   5.1869308e-03   9.7349048e-03  -2.0908572e-04  -2.3720123e-03  -1.2157240e-03  -2.4822219e-04  -1.3081890e-03  -3.4953743e-04   1.5879747e-03  -8.1143027e-05   1.2689246e-03   5.1025856e-04  -8.6273819e-06   3.7765358e-05  -8.5122982e-05   5.8535576e-03   7.4343185e-03   6.1013097e-03   5.0784253e-04   4.4900279e-04   1.7407283e-04   5.2454743e-03   8.0029224e-03   1.9784407e-03  -1.0756763e-03  -1.3021414e-04  -8.7160521e-05  -1.0730447e-04  -1.6244727e-04  -1.0058584e-04  -1.0253889e-04  -1.2250798e-04  -5.3454406e-05  -1.0089497e-04  -1.0754868e-04  -1.4437408e-04  -1.3920586e-04  -3.6702853e-05  -5.7349151e-05  -1.8622425e-04  -1.6146445e-04  -9.8836482e-05  -9.4774972e-05  -1.0517407e-04  -1.5373727e-04  -9.6425610e-05  -1.3473748e-04  -8.1312950e-05  -1.6014231e-04  -7.1888609e-05  -6.6658270e-05  -7.3595037e-05  -6.3795540e-05  -8.6668399e-05   3.5053007e-05  -9.8411853e-05  -1.0585817e-05   6.4856651e-06  -5.9645270e-05  -2.7960473e-05  -9.0740631e-05  -3.2377369e-06  -3.4384692e-05  -1.3536843e-04  -1.2413704e-04  -1.1553641e-04  -1.4934641e-04  -6.2692334e-05  -8.4599618e-05  -8.8888434e-05   6.2825565e-05  -1.2047976e-04  -5.1643630e-06  -6.5370869e-05  -5.8857785e-05  -1.7916280e-04  -2.8347488e-04  -3.5135741e-04  -7.0852412e-05   8.7868918e-05   4.4091957e-05  -9.1314454e-05  -5.9331007e-06   7.3067658e-05  -1.7641275e-05   9.7459236e-06  -2.1301962e-06   1.1538385e-04   5.4865459e-05   7.9874881e-05   9.3939768e-05  -1.6212460e-04   1.7185537e-04  -1.4533836e-04   5.9988409e-05   8.5287551e-05  -1.4775586e-05  -3.1540026e-06  -2.3884461e-04  -1.5847967e-04   3.9702788e-06  -1.8763388e-04  -1.1119860e-04  -1.9153041e-04  -1.7554324e-04  -1.5964702e-04  -7.4354426e-05   1.3691554e-05   2.2426619e-04  -7.2444099e-05  -7.0886573e-05  -1.0443409e-04  -3.7448725e-05   8.1409253e-05   1.6190961e-04  -9.2361858e-05  -1.4012602e-04  -6.2246685e-05  -9.9611894e-05  -6.7562697e-05  -1.1607633e-04  -8.5069972e-05  -1.1140784e-04  -8.7147458e-05  -1.5850326e-04  -1.1233827e-04  -3.7088755e-05  -9.6019473e-05  -4.2472476e-05  -8.7175542e-05  -3.3368974e-05  -1.6685894e-04  -9.0785440e-05  -5.7091064e-05  -1.5467639e-05  -8.3093619e-05  -1.4440216e-04  -3.0640467e-05   1.9266382e-05  -2.2961675e-04  -1.6818093e-04  -1.1049625e-04  -2.6347063e-04  -1.1824936e-04  -1.0914448e-04   2.1161487e-05   7.3543692e-05   1.6922448e-04  -7.9031942e-05  -3.2781343e-04  -1.0188753e-04  -4.0858116e-06  -2.4300005e-05   4.7696341e-07  -5.5747088e-05  -7.3935857e-05  -2.7246606e-04  -3.7456203e-04  -1.3364123e-04  -8.5952526e-05  -1.1526466e-04  -6.7111294e-05  -1.9888501e-04  -7.9685024e-05  -9.2280063e-05  -2.2902410e-04  -1.4781143e-04  -2.0498795e-05  -4.6828872e-05  -5.0263125e-04  -2.6807619e-04  -1.1388509e-04  -1.6291150e-04  -8.9162840e-05  -1.4114208e-04  -2.8044348e-04  -4.4117699e-04  -1.1163818e-04  -6.6938807e-05  -2.0722899e-05  -1.0676074e-04  -4.1584163e-05  -8.0858849e-05   2.6753547e-04   5.3511901e-04  -1.4973841e-05  -1.3384286e-05  -8.8270225e-05  -9.9678883e-05   2.1824142e-04   3.4104541e-04   3.3863009e-04   3.8729678e-05  -7.7633155e-05  -7.3522048e-05  -6.6563692e-05  -1.4763879e-04  -1.6114717e-04  -5.4686137e-05  -9.8159679e-05  -1.0428769e-04   6.8782946e-06  -1.4926713e-04  -1.7025445e-04  -1.4618864e-04   2.3485759e-04   4.6391911e-04   2.1796100e-04  -1.0657240e-04  -8.1602090e-05   2.1773884e-05   2.0336571e-04   2.9418677e-04   1.8976223e-04  -7.8607699e-05  -2.7419654e-04  -3.4480592e-04  -1.6363349e-04  -2.1336583e-04  -1.6258785e-04  -4.9565455e-05  -6.3721610e-04   2.5569276e-04   1.6157441e-05   1.0483195e-05  -1.5070129e-04  -1.1090819e-04  -2.9649939e-04  -3.2822580e-04  -7.4786902e-04  -8.9780927e-05  -7.9895814e-05  -9.4072959e-05  -1.2745255e-04  -1.5109491e-04  -2.5742735e-04  -2.2641431e-04  -1.4561874e-04  -2.9694428e-04   5.8048625e-05  -1.6262615e-04  -2.0514852e-04  -1.5852740e-04   2.0189042e-04   3.3409433e-03   1.4484461e-03  -9.3241654e-05  -3.2333659e-05   1.1675505e-04   9.1735450e-04   1.8331019e-03   1.1625430e-06  -1.0717117e-04   7.4356609e-05   1.1036609e-04   2.3032771e-04   1.6537363e-04   3.3670668e-05   2.0848959e-05  -1.5059533e-04   1.0319810e-04   1.5550667e-04   1.3734757e-04   1.3078109e-04  -8.1942816e-05   1.0355961e-06  -8.1214103e-05  -9.3639400e-05   1.4540050e-04   1.3409282e-04   1.0951649e-05  -2.8595653e-05  -1.0916075e-05   1.5941151e-04   1.3315067e-04   9.2073382e-05   2.4602613e-04   1.8977037e-04   1.2238129e-04   1.0669204e-04   1.3939869e-04  -1.4088792e-04  -5.9787206e-04  -4.0530638e-04   4.2725860e-05   7.4088095e-05   2.0470860e-05  -1.4798370e-04  -4.7396953e-04  -1.0715855e-04   6.7141913e-05   1.7596171e-04   2.9526255e-04  -4.0998464e-05   1.4933444e-04  -5.0104172e-06   2.3958404e-04   4.8077511e-05   1.5086912e-04   1.3575830e-04   2.6402697e-04   6.7715793e-04   5.2461949e-04   4.2798429e-04   4.0417368e-04  -7.5676364e-05   2.3850113e-04   9.6774905e-06  -5.1351162e-06   3.2479022e-04   4.6614166e-04   3.6788248e-04   1.5339746e-04   6.3152564e-05   3.0953234e-04   8.6270057e-05   2.6248247e-04   3.4447999e-05   1.7280889e-04  -3.6081581e-05   2.3510018e-04   3.2074031e-04   8.7888588e-05  -1.8725952e-04   3.4355888e-04  -1.4501819e-04   1.2106635e-04   1.0532821e-04   4.6726783e-04
  -1.6823941e-04  -1.7154710e-04  -1.6793050e-04  -2.4467500e-04  -7.5867677e-05  -1.7265363e-04  -1.4661051e-04  -1.2721995e-04  -2.1114947e-04  -1.9647895e-04  -3.2045136e-04  -2.7410610e-04  -7.2150086e-05  -1.8156389e-04  -2.2086550e-04  -3.1905439e-04  -1.7639363e-04  -1.8852840e-04  -2.1032059e-04  -2.8080551e-04  -2.1494044e-04  -1.2743892e-04  -1.1781628e-04  -2.1006705e-04  -1.9173094e-04  -2.0697440e-04  -2.0769569e-04  -1.9300556e-04  -1.4752885e-04  -6.9836790e-05  -6.9638319e-05  -9.2802983e-05  -6.9396236e-05  -1.5211559e-04  -1.2167635e-04  -2.2485086e-04  -1.3274213e-04  -3.3413407e-05  -7.9112831e-05   4.8060343e-05  -1.3706742e-04   7.9194545e-05  -2.0715344e-04   1.2424510e-04   5.5410006e-04   8.4279700e-04   1.0571625e-04   1.9944770e-04   3.4260591e-04   4.0655006e-04   6.0567250e-04   1.1977976e-03   6.8675936e-04   2.8948256e-04   2.8540568e-04   6.5086337e-05   9.0733895e-05   1.6080499e-04   8.9406098e-05  -2.1222157e-04  -4.8687711e-05  -6.2421159e-05   5.3820798e-05   5.6840173e-05  -4.3529285e-05   3.3376469e-05   2.6109891e-04   6.4243112e-04   1.0972634e-04  -1.5328725e-04  -1.5934539e-04   2.3216294e-04   2.7521934e-04   4.9155082e-04   1.4170737e-04   3.5273804e-05   1.4255086e-03   1.2775134e-03   1.8432099e-03   2.9231512e-03   1.4509681e-03  -8.9888946e-04   9.1836074e-03   1.0339666e-02   1.5111637e-03  -1.5250608e-03  -1.1724062e-03  -1.8724246e-03   8.7390460e-04   5.2344154e-03   9.8526924e-03  -1.0187868e-04  -2.2849745e-03  -1.1453484e-03  -2.0998567e-04  -1.2543740e-03  -3.1903495e-04   1.6223363e-03  -5.6131704e-05   1.3173814e-03   5.7592690e-04   2.3130827e-05   8.1446781e-05  -5.4443699e-05   5.8698106e-03   7.6503519e-03   6.2001110e-03   5.3313513e-04   4.6447835e-04   2.4734061e-04   5.3674794e-03   8.0900937e-03   1.9822088e-03  -1.0130879e-03  -1.1782393e-04  -7.8454405e-05  -8.9158890e-05  -1.4994827e-04  -8.8033240e-05  -8.8096563e-05  -1.2024490e-04  -6.2160093e-05  -8.7145392e-05  -8.7755895e-05  -1.2008822e-04  -1.1997799e-04  -3.4419246e-05  -5.6618793e-05  -1.8210279e-04  -1.3694070e-04  -8.3382501e-05  -7.4048559e-05  -8.6878941e-05  -1.3090879e-04  -8.2626974e-05  -1.1864420e-04  -6.9606165e-05  -1.4740290e-04  -5.5637678e-05  -5.4629106e-05  -5.6901596e-05  -5.0971693e-05  -8.2258090e-05   2.4345978e-05  -1.0483955e-04  -4.9643632e-06   1.2339348e-05  -5.2606367e-05  -3.0520696e-05  -8.4099446e-05   1.1146259e-05  -3.3735980e-05  -1.2749183e-04  -1.0855225e-04  -1.1108041e-04  -1.3216213e-04  -7.3407944e-05  -7.3464290e-05  -8.3557837e-05   7.8350601e-05  -1.0307046e-04   1.1807257e-05  -4.3546134e-05  -3.0942698e-05  -1.6852322e-04  -2.7070537e-04  -3.6154439e-04  -4.8953620e-05   1.0021969e-04   4.5326213e-05  -8.2208588e-05   9.8044269e-06   8.3461681e-05  -3.0819165e-05   7.3772424e-06   1.3539790e-06   1.2320815e-04   6.6071035e-05   8.9196290e-05   1.0989960e-04  -1.5602955e-04   1.7069077e-04  -1.4926659e-04   5.9556619e-05   8.9525726e-05  -4.6691593e-06  -6.2816286e-06  -2.3558110e-04  -1.5732209e-04   1.3220467e-05  -1.7464824e-04  -1.0391250e-04  -1.7721169e-04  -1.5940239e-04  -1.4471857e-04  -6.4732505e-05   4.4653461e-05   2.3063440e-04  -6.1563082e-05  -5.9795432e-05  -8.7377842e-05  -2.6707125e-05   8.5845800e-05   1.8499119e-04  -4.7718962e-05  -1.1446442e-04  -5.4089815e-05  -8.6234220e-05  -5.4256165e-05  -1.0114425e-04  -7.3655652e-05  -9.1433648e-05  -7.5645787e-05  -1.4443942e-04  -1.0346320e-04  -2.6664092e-05  -8.2438681e-05  -3.6246272e-05  -7.0721391e-05  -4.3184840e-05  -1.5611216e-04  -8.1724640e-05  -5.1341515e-05  -1.4045201e-05  -7.6194622e-05  -1.2180425e-04  -2.0527658e-05   4.5450200e-06  -2.1118026e-04  -1.4908391e-04  -9.0279562e-05  -2.0962427e-04  -1.2592588e-04  -7.8459288e-05   7.4527870e-05   1.5526063e-04   2.4305557e-04  -3.4693557e-05  -2.6463861e-04  -4.7309174e-05   2.9431440e-05   1.9059304e-05   8.3490475e-06   1.1714361e-05  -3.4736257e-05  -2.5657382e-04  -3.6589604e-04  -1.0284637e-04  -7.6088946e-05  -1.1252254e-04  -6.4171452e-05  -1.9198799e-04  -6.5363073e-05  -7.6829846e-05  -2.2173218e-04  -1.2619715e-04  -1.0732019e-05  -3.4534340e-05  -5.5346093e-04  -2.6943452e-04  -1.1402638e-04  -1.4977856e-04  -8.2830851e-05  -1.3590539e-04  -2.8106372e-04  -4.6153131e-04  -1.0660416e-04  -6.3289251e-05  -1.4733539e-05  -1.0200507e-04  -3.9394912e-05  -7.4397682e-05   2.8262863e-04   5.4157204e-04  -6.5162606e-06  -7.8931115e-06  -7.2295377e-05  -9.1151400e-05   2.1912125e-04   3.5744468e-04   3.5849330e-04   5.3227340e-05  -6.7841170e-05  -6.4213693e-05  -5.7747729e-05  -1.3802385e-04  -1.5051812e-04  -5.0024491e-05  -9.2253725e-05  -9.7804472e-05   2.0633233e-05  -1.4076617e-04  -1.6601241e-04  -1.4163644e-04   2.4592405e-04   4.8194994e-04   2.2069229e-04  -1.0147906e-04  -7.7838903e-05   2.9314661e-05   2.1308861e-04   3.1233362e-04   2.1174571e-04  -7.6133044e-05  -2.6699818e-04  -3.4287766e-04  -1.4462895e-04  -1.9267298e-04  -1.5734134e-04  -4.0630332e-05  -5.9189728e-04   2.9973529e-04   3.5880829e-05   3.8055909e-05  -1.2009080e-04  -9.3069117e-05  -2.9770076e-04  -3.0283731e-04  -7.1380535e-04  -5.8928706e-05  -5.9324050e-05  -7.5020595e-05  -1.2171903e-04  -1.3729914e-04  -2.5683654e-04  -2.2097932e-04  -1.3802053e-04  -2.8666307e-04   7.2336765e-05  -1.5924050e-04  -1.9733128e-04  -1.6671684e-04   2.0629761e-04   3.3319801e-03   1.4582886e-03  -8.5331483e-05  -2.3622439e-05   1.2977145e-04   9.1980790e-04   1.9015957e-03   9.1856832e-06  -9.8839111e-05   8.5083286e-05   1.2216462e-04   2.4911992e-04   1.8068881e-04   4.1261640e-05   2.8645418e-05  -1.2413147e-04   1.2164504e-04   1.6688449e-04   1.4475944e-04   1.4741516e-04  -8.1131312e-05   4.7206243e-06  -7.7508325e-05  -4.9438652e-05   1.6880148e-04   1.4960754e-04   2.3730519e-05  -1.7788376e-05  -6.0295341e-06   1.6304875e-04   1.4360033e-04   1.0057847e-04   2.5620159e-04   2.0600753e-04   1.2587958e-04   1.1708133e-04   1.4804527e-04  -1.1618635e-04  -6.0781942e-04  -3.9519166e-04   5.0696286e-05   7.9309123e-05   2.0928465e-05  -1.3614874e-04  -4.6839381e-04  -9.3135401e-05   6.6700140e-05   1.7427284e-04   2.7604784e-04  -2.3093671e-05   1.3980713e-04   9.4539100e-06   2.4246746e-04   3.5609576e-05   9.4943253e-05   1.3180189e-04   2.6372583e-04   6.5781235e-04   5.0846843e-04   3.9642200e-04   3.4993859e-04  -9.4147350e-05   2.2989899e-04   6.4819627e-07  -1.0288615e-05   3.0662258e-04   4.5693716e-04   3.7698573e-04   1.4342526e-04   6.4716156e-05   2.9152667e-04   7.1827441e-05   2.5949445e-04   2.9789619e-05   1.6208024e-04  -6.2630138e-05   1.9119796e-04   2.8660012e-04   1.0193901e-04  -1.8401580e-04   3.1842036e-04  -1.6315175e-04   9.5820047e-05   9.0537697e-05   4.4556216e-04
  -1.7269771e-04  -1.7127128e-04  -1.6997732e-04  -2.4441495e-04  -8.4011235e-05  -1.7100974e-04  -1.2996929e-04  -9.4416385e-05  -2.0260777e-04  -1.8977460e-04  -3.0453465e-04  -2.6203437e-04  -6.6134368e-05  -1.5519231e-04  -2.0666883e-04  -3.0534969e-04  -1.6763484e-04  -1.8223480e-04  -2.0282146e-04  -2.7326964e-04  -2.1036020e-04  -1.2921518e-04  -1.1868123e-04  -2.1044365e-04  -1.8288992e-04  -1.9767709e-04  -2.0232833e-04  -1.8676788e-04  -1.4064395e-04  -5.1186309e-05  -8.4357431e-05  -9.2789238e-05  -6.6208894e-05  -1.4400862e-04  -1.1482220e-04  -2.1799345e-04  -1.2314782e-04  -3.9981500e-05  -3.9721165e-05   7.2238434e-05  -7.9318235e-05   1.2789920e-04  -1.6306455e-04   1.4078189e-04   5.6604752e-04   8.2745386e-04   1.3776697e-04   2.3136210e-04   3.6555008e-04   4.2086626e-04   6.3178331e-04   1.2465500e-03   7.4897063e-04   3.3846280e-04   2.8937700e-04   8.0783655e-05   1.0913603e-04   1.8484386e-04   1.0834485e-04  -1.8244816e-04  -3.1331131e-05  -1.2198077e-05   8.2213039e-05   7.1958057e-05  -2.4935717e-05   4.5529835e-05   2.7444128e-04   6.7675504e-04   1.7835802e-04  -1.3473790e-04  -1.5042259e-04   2.3884721e-04   2.8726123e-04   5.2372204e-04   1.5046746e-04   7.1678541e-05   1.4176538e-03   1.2834865e-03   1.9070706e-03   2.9818228e-03   1.4834700e-03  -8.6903876e-04   9.4111113e-03   1.0572428e-02   1.6200798e-03  -1.4399341e-03  -1.1244745e-03  -1.8293863e-03   8.6820281e-04   5.2535995e-03   9.8318457e-03   2.9957310e-05  -2.1646217e-03  -1.0710810e-03  -1.7862470e-04  -1.2022075e-03  -2.9030650e-04   1.6623634e-03  -2.7667270e-05   1.3683493e-03   6.5786551e-04   5.6834038e-05   1.2320323e-04  -1.6549184e-05   5.8004089e-03   7.8038794e-03   6.2464177e-03   5.5316400e-04   4.7541149e-04   3.2438393e-04   5.3942023e-03   8.0675762e-03   1.9772889e-03  -8.9270670e-04  -1.0282012e-04  -6.9052340e-05  -7.0594614e-05  -1.3743731e-04  -7.2646800e-05  -7.2194827e-05  -1.1840733e-04  -7.3683743e-05  -7.4422872e-05  -6.8602776e-05  -9.6329202e-05  -9.9861682e-05  -3.3725720e-05  -5.6737798e-05  -1.7629231e-04  -1.1461493e-04  -6.8029778e-05  -5.1737079e-05  -6.7094403e-05  -1.0583710e-04  -6.7374382e-05  -1.0181569e-04  -5.6341600e-05  -1.3408772e-04  -4.0890569e-05  -4.2415246e-05  -3.9686616e-05  -3.8486819e-05  -7.5537307e-05   1.3437458e-05  -1.0780821e-04   1.3865840e-06   1.8273358e-05  -4.5301002e-05  -3.1562783e-05  -7.5372734e-05   2.7435994e-05  -3.1872866e-05  -1.2141299e-04  -9.3950272e-05  -1.0814827e-04  -1.1655664e-04  -8.6828015e-05  -6.3374281e-05  -8.0606353e-05   9.0612300e-05  -8.7700807e-05   2.5345862e-05  -2.3722523e-05  -4.5504268e-06  -1.5759830e-04  -2.5770422e-04  -3.7308688e-04  -2.9882670e-05   1.1015087e-04   4.3691427e-05  -7.3449144e-05   2.2800393e-05   9.2211402e-05  -4.6962337e-05   3.2850003e-06   2.1827125e-06   1.2787291e-04   7.5652368e-05   9.5758455e-05   1.2378150e-04  -1.4623900e-04   1.6935427e-04  -1.4814175e-04   5.7408216e-05   9.2355629e-05   6.1861026e-06  -9.5478902e-06  -2.2894330e-04  -1.5598359e-04   2.2582054e-05  -1.5995975e-04  -9.6263893e-05  -1.6292750e-04  -1.4384028e-04  -1.2801094e-04  -5.4714759e-05   7.3750823e-05   2.3314279e-04  -5.2176010e-05  -5.0270276e-05  -7.1680584e-05  -1.6383968e-05   8.7971989e-05   2.0480293e-04  -3.5836499e-06  -9.1875138e-05  -4.6595465e-05  -7.1990384e-05  -4.0939063e-05  -8.6142347e-05  -6.1968411e-05  -7.1727094e-05  -6.3141456e-05  -1.3096114e-04  -9.6179014e-05  -1.7099534e-05  -6.8547294e-05  -3.1328496e-05  -5.3858725e-05  -5.4224174e-05  -1.4461654e-04  -7.2365603e-05  -4.5653336e-05  -1.2692146e-05  -6.8684480e-05  -9.8802028e-05  -1.0047539e-05  -1.0452559e-05  -1.9014203e-04  -1.2828059e-04  -6.2885192e-05  -1.5009222e-04  -1.3073474e-04  -4.6292811e-05   1.2589361e-04   2.3329605e-04   3.2008038e-04   1.3082522e-05  -1.9936499e-04   8.7687052e-06   6.3630857e-05   6.1311153e-05   1.4359629e-05   8.3687897e-05   4.7413268e-06  -2.3600371e-04  -3.5368261e-04  -6.7744535e-05  -6.3165434e-05  -1.0403141e-04  -5.8780739e-05  -1.7871132e-04  -4.7624550e-05  -5.9611112e-05  -2.1303474e-04  -1.0059172e-04  -2.9711316e-06  -2.5286992e-05  -5.9546126e-04  -2.6467908e-04  -1.1248509e-04  -1.3529790e-04  -7.6544123e-05  -1.3049021e-04  -2.7888484e-04  -4.7268925e-04  -9.8293061e-05  -5.7787521e-05  -6.0410904e-06  -9.4825253e-05  -3.3814764e-05  -6.5844137e-05   2.9087574e-04   5.3859607e-04   1.6637636e-06  -9.9407672e-07  -5.6067573e-05  -8.1199074e-05   2.1979813e-04   3.6948624e-04   3.7308730e-04   6.6778935e-05  -5.7331152e-05  -5.3500057e-05  -4.7462644e-05  -1.2573988e-04  -1.3753096e-04  -4.4049726e-05  -8.4286379e-05  -8.8797076e-05   3.3717555e-05  -1.3110374e-04  -1.5980350e-04  -1.3580563e-04   2.5314820e-04   4.9515668e-04   2.2501899e-04  -9.4871861e-05  -7.3534321e-05   3.6113271e-05   2.1974446e-04   3.2602414e-04   2.3225277e-04  -7.0666002e-05  -2.5615745e-04  -3.3999548e-04  -1.2202861e-04  -1.7113903e-04  -1.4785589e-04  -3.0793224e-05  -5.4035343e-04   3.4776854e-04   5.6737062e-05   6.4944687e-05  -8.8555903e-05  -7.4751924e-05  -2.9715882e-04  -2.7494635e-04  -6.7448401e-04  -3.0548808e-05  -3.9592391e-05  -5.3301206e-05  -1.1400519e-04  -1.2245068e-04  -2.5293402e-04  -2.1188417e-04  -1.2751107e-04  -2.7233358e-04   8.8499468e-05  -1.5336103e-04  -1.8499492e-04  -1.7319866e-04   2.1436339e-04   3.3291134e-03   1.4700064e-03  -7.5270300e-05  -1.3056300e-05   1.4248840e-04   9.1937375e-04   1.9661780e-03   1.8565440e-05  -8.3228588e-05   9.7308440e-05   1.3326113e-04   2.6591030e-04   1.9480755e-04   5.0627743e-05   3.7684022e-05  -9.9158047e-05   1.3435246e-04   1.7607808e-04   1.5136285e-04   1.6329028e-04  -7.7774906e-05   7.3278655e-06  -7.5438955e-05  -6.6620064e-06   1.8901280e-04   1.6542223e-04   3.7648606e-05  -6.4992592e-06   2.3163476e-07   1.6556369e-04   1.5282857e-04   1.1006346e-04   2.6474509e-04   2.1921172e-04   1.2821370e-04   1.2665383e-04   1.5523149e-04  -9.2093675e-05  -6.1730652e-04  -3.8247698e-04   5.8658038e-05   8.3966882e-05   2.0443465e-05  -1.2477759e-04  -4.6257765e-04  -7.7265163e-05   6.7218295e-05   1.6757432e-04   2.5430465e-04  -9.9514727e-06   1.2415535e-04   1.7105693e-05   2.3980479e-04   1.8314828e-05   4.2740993e-05   1.2402698e-04   2.5645706e-04   6.3318469e-04   4.8580258e-04   3.6474655e-04   2.9678233e-04  -1.1803513e-04   2.1481599e-04  -1.2593731e-05  -2.3762794e-05   2.8613322e-04   4.3979100e-04   3.8075077e-04   1.2878783e-04   6.1455894e-05   2.6951618e-04   5.4274559e-05   2.5175515e-04   1.9056482e-05   1.4762182e-04  -9.1161846e-05   1.4814192e-04   2.5096103e-04   1.1048787e-04  -1.8389006e-04   2.9095592e-04  -1.8527580e-04   6.8639805e-05   7.3707127e-05   4.2405515e-04
  -1.7320936e-04  -1.6764894e-04  -1.6842139e-04  -2.3972213e-04  -8.9369279e-05  -1.6588346e-04  -1.1444685e-04  -6.4899988e-05  -1.9073423e-04  -1.7947263e-04  -2.8383483e-04  -2.4554255e-04  -5.9195025e-05  -1.2825218e-04  -1.9203486e-04  -2.8695508e-04  -1.5586394e-04  -1.7262919e-04  -1.9156171e-04  -2.6053235e-04  -2.0200990e-04  -1.2820537e-04  -1.1685284e-04  -2.0672585e-04  -1.7100974e-04  -1.8512288e-04  -1.9333448e-04  -1.7711259e-04  -1.3411195e-04  -3.4139554e-05  -9.7867426e-05  -9.1075459e-05  -6.1993721e-05  -1.3381363e-04  -1.0752957e-04  -2.1012277e-04  -1.1290535e-04  -4.4098224e-05  -4.7121722e-07   9.4865118e-05  -2.3314989e-05   1.7368514e-04  -1.1823331e-04   1.5120496e-04   5.7567051e-04   8.0187606e-04   1.6510890e-04   2.5367635e-04   3.7962627e-04   4.2396376e-04   6.4908126e-04   1.2853326e-03   8.1239164e-04   3.8008954e-04   2.8721485e-04   9.2517046e-05   1.2274145e-04   2.0108228e-04   1.2395742e-04  -1.5208423e-04  -1.5764340e-05   3.7443992e-05   1.0616260e-04   8.4561012e-05  -8.1797705e-06   5.3408400e-05   2.8942078e-04   7.0016805e-04   2.4291835e-04  -1.1521642e-04  -1.3948534e-04   2.4169905e-04   2.9846118e-04   5.5631660e-04   1.5770134e-04   1.0014037e-04   1.4041751e-03   1.2767458e-03   1.9950804e-03   3.0506292e-03   1.5214381e-03  -8.3665650e-04   9.5542444e-03   1.0646717e-02   1.7367626e-03  -1.3440460e-03  -1.0835189e-03  -1.7958466e-03   8.6830188e-04   5.2512875e-03   9.6806185e-03   1.8331209e-04  -2.0135459e-03  -9.9527667e-04  -1.5483464e-04  -1.1523046e-03  -2.6414471e-04   1.7044415e-03   2.9357422e-06   1.4191953e-03   7.5396914e-04   9.1362284e-05   1.6169553e-04   2.7677223e-05   5.6511933e-03   7.8981172e-03   6.2425336e-03   5.6697383e-04   4.8142469e-04   4.0411245e-04   5.3299075e-03   7.9405843e-03   1.9634130e-03  -7.1644721e-04  -8.5926061e-05  -5.9350683e-05  -5.2577128e-05  -1.2561032e-04  -5.5191270e-05  -5.5565516e-05  -1.1773500e-04  -8.7962504e-05  -6.3355578e-05  -5.1001505e-05  -7.4306836e-05  -7.9773103e-05  -3.4729474e-05  -5.8021839e-05  -1.6982717e-04  -9.5711949e-05  -5.3539671e-05  -2.8874241e-05  -4.6715800e-05  -7.9604396e-05  -5.1232245e-05  -8.5036739e-05  -4.2134976e-05  -1.2073439e-04  -2.8194518e-05  -3.0386621e-05  -2.2604947e-05  -2.6697333e-05  -6.7249515e-05   2.8570144e-06  -1.0774768e-04   8.3183044e-06   2.4167285e-05  -3.8015117e-05  -3.1184724e-05  -6.5375402e-05   4.4841396e-05  -2.8715369e-05  -1.1751045e-04  -8.0897308e-05  -1.0682291e-04  -1.0295410e-04  -1.0257831e-04  -5.4898552e-05  -7.9824243e-05   9.9440158e-05  -7.4935588e-05   3.4842980e-05  -6.6737522e-06   1.9207776e-05  -1.4667212e-04  -2.4492741e-04  -3.8538178e-04  -1.4232256e-05   1.1728271e-04   3.9221286e-05  -6.5443335e-05   3.2494002e-05   9.9035745e-05  -6.5387426e-05  -2.4185700e-06   7.1687903e-07   1.2949706e-04   8.3333983e-05   9.9456408e-05   1.3517785e-04  -1.3284104e-04   1.6895489e-04  -1.4146932e-04   5.3830627e-05   9.3834650e-05   1.7360034e-05  -1.2594488e-05  -2.1866077e-04  -1.5455593e-04   3.1856640e-05  -1.4433636e-04  -8.8594910e-05  -1.4956484e-04  -1.2954782e-04  -1.1044325e-04  -4.4718575e-05   9.9684922e-05   2.3219688e-04  -4.4691658e-05  -4.2709510e-05  -5.8014520e-05  -6.7686376e-06   8.7808573e-05   2.2076336e-04   3.7874480e-05  -7.3409513e-05  -4.0042399e-05  -5.7693683e-05  -2.8229606e-05  -7.1712013e-05  -5.0498399e-05  -5.3302586e-05  -5.0249686e-05  -1.1877579e-04  -9.0932051e-05  -8.7226550e-06  -5.5027269e-05  -2.7856395e-05  -3.7592038e-05  -6.5652814e-05  -1.3307989e-04  -6.3235673e-05  -4.0376645e-05  -1.1384186e-05  -6.1014927e-05  -7.6619805e-05   2.8409143e-07  -2.4754127e-05  -1.6739317e-04  -1.0658516e-04  -2.8827107e-05  -8.7047492e-05  -1.3228918e-04  -1.3828107e-05   1.7313111e-04   3.0447239e-04   3.9834347e-04   6.2753029e-05  -1.3518765e-04   6.4072022e-05   9.7126022e-05   1.0066412e-04   1.8066009e-05   1.5771871e-04   4.2883320e-05  -2.1188388e-04  -3.3886952e-04  -2.9977629e-05  -4.7640854e-05  -9.0577307e-05  -5.1420453e-05  -1.6026856e-04  -2.7373858e-05  -4.1415121e-05  -2.0323869e-04  -7.2008008e-05   2.3196228e-06  -1.9645282e-05  -6.2797675e-04  -2.5409617e-04  -1.0940832e-04  -1.2009178e-04  -7.0669813e-05  -1.2545676e-04  -2.7402613e-04  -4.7495234e-04  -8.7147428e-05  -5.0779171e-05   5.0851810e-06  -8.5759571e-05  -2.4964271e-05  -5.5551185e-05   2.9200709e-04   5.2612063e-04   9.1090612e-06   6.8970071e-06  -4.0448612e-05  -7.0419008e-05   2.2019880e-04   3.7685822e-04   3.8231882e-04   7.8824278e-05  -4.6674890e-05  -4.1851570e-05  -3.6292659e-05  -1.1135964e-04  -1.2274887e-04  -3.7099201e-05  -7.4613072e-05  -7.7778945e-05   4.5625747e-05  -1.2087109e-04  -1.5200457e-04  -1.2914618e-04   2.5636319e-04   5.0302813e-04   2.3090172e-04  -8.7127279e-05  -6.8974399e-05   4.1840814e-05   2.2319951e-04   3.3495067e-04   2.5061458e-04  -6.2702387e-05  -2.4190012e-04  -3.3596356e-04  -9.6359643e-05  -1.4898462e-04  -1.3440206e-04  -1.9991734e-05  -4.8301478e-04   3.9975766e-04   7.8458757e-05   9.0877091e-05  -5.6399565e-05  -5.5922437e-05  -2.9440825e-04  -2.4510875e-04  -6.3054674e-04  -5.0723550e-06  -2.0620568e-05  -2.9032399e-05  -1.0404834e-04  -1.0651244e-04  -2.4563746e-04  -1.9922459e-04  -1.1419222e-04  -2.5394559e-04   1.0634018e-04  -1.4495106e-04  -1.6821870e-04  -1.7741538e-04   2.2768841e-04   3.3345379e-03   1.4851354e-03  -6.3230599e-05  -1.0318417e-06   1.5514809e-04   9.1756216e-04   2.0278217e-03   2.9566368e-05  -6.1174622e-05   1.1040451e-04   1.4308264e-04   2.7993746e-04   2.0707165e-04   6.1360268e-05   4.7456448e-05  -7.6832102e-05   1.4084496e-04   1.8259748e-04   1.5669419e-04   1.7756696e-04  -7.2402152e-05   8.7748692e-06  -7.5174981e-05   3.3294104e-05   2.0513930e-04   1.8091219e-04   5.1956539e-05   4.3284207e-06   7.3181143e-06   1.6672237e-04   1.6044289e-04   1.2013716e-04   2.7153615e-04   2.2903836e-04   1.2915224e-04   1.3487081e-04   1.6060985e-04  -6.9860590e-05  -6.2662707e-04  -3.6804814e-04   6.6327282e-05   8.7803126e-05   1.8943519e-05  -1.1446272e-04  -4.5741074e-04  -6.0546888e-05   6.8538759e-05   1.5648842e-04   2.3126129e-04  -1.4446050e-06   1.0358101e-04   1.8031529e-05   2.3197037e-04  -2.7912841e-06  -4.7864354e-06   1.1308218e-04   2.4299438e-04   6.0508775e-04   4.5779860e-04   3.3460757e-04   2.4695175e-04  -1.4579234e-04   1.9465584e-04  -2.9170771e-05  -4.4294299e-05   2.6463131e-04   4.1578675e-04   3.7929689e-04   1.1077974e-04   5.3784966e-05   2.4511127e-04   3.4706178e-05   2.3972140e-04   2.7964343e-06   1.3025182e-04  -1.2083387e-04   1.0642641e-04   2.1476125e-04   1.1336568e-04  -1.8688880e-04   2.6220949e-04  -2.1081211e-04   4.0151594e-05   5.5575964e-05   4.0391135e-04
