   5.7731414e-05   2.5526430e-05   4.6680477e-05   7.8312189e-05   6.3728611e-05   3.6467711e-05   0.0000000e+00   0.0000000e+00   2.8467222e-05   1.9746021e-05   0.0000000e+00   4.4845448e-05   0.0000000e+00   0.0000000e+00   0.0000000e+00   0.0000000e+00   0.0000000e+00   0.0000000e+00   5.8864154e-05   4.0030098e-05   4.9938005e-05   2.4809554e-05   2.4872459e-05   0.0000000e+00   0.0000000e+00   4.2715928e-05   5.5259854e-05  -6.3571676e-06   3.6254774e-05  -5.4868491e-05   7.9390743e-05   5.0685081e-05   5.3351443e-05   4.7563010e-05   3.5986051e-05   1.6105953e-05   0.0000000e+00   7.9616232e-06  -2.8745757e-04  -1.0799399e-04  -2.2391619e-05  -7.8969106e-05   2.6370528e-05  -3.4299519e-05   0.0000000e+00   0.0000000e+00  -1.4981453e-05   5.2042499e-07   0.0000000e+00  -3.0727449e-06   0.0000000e+00   0.0000000e+00   0.0000000e+00   0.0000000e+00   0.0000000e+00   0.0000000e+00   8.8631891e-06  -2.0325400e-05   1.0278514e-05  -2.6832911e-05  -7.8820048e-06   0.0000000e+00   0.0000000e+00  -1.5482527e-05   4.4031373e-05  -8.5136887e-05   4.5919693e-05   4.5089648e-05   7.4747589e-05  -2.1781559e-05   3.3783681e-05   2.9312942e-05   4.0257264e-05   1.4075075e-04   0.0000000e+00   5.5081332e-06   9.5607906e-05   1.7825771e-04  -1.8516024e-04   8.1566711e-06   6.3734386e-05   2.3948647e-05   0.0000000e+00   0.0000000e+00  -2.2670263e-04  -6.5506899e-05   0.0000000e+00  -2.6668501e-05   0.0000000e+00   0.0000000e+00   0.0000000e+00   0.0000000e+00   0.0000000e+00   0.0000000e+00  -4.9755351e-06   2.7978041e-05   1.8522233e-04   1.6913717e-05   1.5274972e-05   0.0000000e+00   0.0000000e+00   1.1585669e-04   9.1576313e-05   3.3186564e-05   4.3202175e-05  -2.2502137e-04  -4.7288131e-04   1.6329449e-04   5.1721916e-05   2.1294641e-05  -7.8673128e-05  -2.8319798e-04   0.0000000e+00  -1.8987523e-05  -2.7025163e-06  -1.6666188e-05  -1.2786018e-05  -2.2431703e-05   3.1271383e-05  -2.5069128e-06   0.0000000e+00   0.0000000e+00  -1.1071353e-05  -3.5851203e-06   0.0000000e+00  -9.2752797e-06   0.0000000e+00   0.0000000e+00   0.0000000e+00   0.0000000e+00   0.0000000e+00   0.0000000e+00  -4.9459977e-06  -2.2044680e-05  -9.5644116e-06  -1.4795399e-05  -3.4016965e-07   0.0000000e+00   0.0000000e+00  -8.6406509e-06  -1.0189119e-05  -2.0354219e-05   1.7394280e-05   1.3660018e-05   1.7199341e-05  -2.0691828e-05  -1.1017720e-05  -6.5024294e-07   4.8084041e-06   8.7264754e-06   0.0000000e+00  -2.0174079e-05   2.9160375e-05  -3.9974587e-05  -1.3979199e-04  -1.1203506e-04  -1.0946433e-04  -5.2933339e-05   0.0000000e+00   0.0000000e+00  -1.3854192e-04  -9.3980481e-05   0.0000000e+00  -1.0418064e-04   0.0000000e+00   0.0000000e+00   0.0000000e+00   0.0000000e+00   0.0000000e+00   0.0000000e+00  -8.7760841e-05  -1.2163539e-04  -1.1894823e-04  -1.1768020e-04  -4.6982392e-05   0.0000000e+00   0.0000000e+00  -7.7819282e-05  -1.0540613e-04  -5.3028545e-05   2.2777834e-06   9.9119947e-05   1.8377626e-05  -8.4545756e-05  -8.8348269e-05  -7.4744843e-06   3.0451195e-05   4.9026756e-05   0.0000000e+00   6.0483860e-05  -5.4518430e-05  -7.4907239e-05  -4.4945427e-05  -5.8273533e-05  -2.7003096e-05  -3.7287773e-05   0.0000000e+00   0.0000000e+00  -4.2268060e-05  -4.5653519e-05   0.0000000e+00  -4.6122707e-05   0.0000000e+00   0.0000000e+00   0.0000000e+00   0.0000000e+00   0.0000000e+00   0.0000000e+00  -3.1161221e-05  -5.6346623e-05  -5.2217690e-05  -6.8285216e-05  -2.7460747e-05   0.0000000e+00   0.0000000e+00  -4.6188152e-05  -3.8087720e-05  -3.7405919e-05  -2.7461267e-05  -4.9488730e-05  -1.1539277e-04  -4.4245339e-05  -4.0649121e-05  -3.1697181e-05  -3.7412445e-05  -6.2872752e-05   0.0000000e+00  -1.3128063e-05   5.4419694e-06  -2.8404858e-05   3.6169268e-05   1.2472916e-05   9.2340192e-05   4.1747651e-05   0.0000000e+00   0.0000000e+00   5.8680620e-05   3.3891438e-05   0.0000000e+00   3.7728274e-05   0.0000000e+00   0.0000000e+00   0.0000000e+00   0.0000000e+00   0.0000000e+00   0.0000000e+00   5.9100542e-05   6.4250616e-05   7.3805907e-05   3.1608381e-05   4.5479513e-05   0.0000000e+00   0.0000000e+00   6.8108391e-05   5.5711427e-05   7.0329895e-05   1.0834501e-06  -1.0216308e-04  -8.3478712e-06   5.8470990e-05   6.8485869e-06   2.2412186e-05   2.2832569e-05  -6.4092492e-05   0.0000000e+00   1.0855200e-05   2.4287004e-05  -1.3831535e-04  -1.6915929e-05  -2.6119479e-05   7.0549121e-05   3.3134826e-05   0.0000000e+00   0.0000000e+00   4.9052258e-05  -4.7052102e-06   0.0000000e+00  -2.1618306e-05   0.0000000e+00   0.0000000e+00   0.0000000e+00   0.0000000e+00   0.0000000e+00   0.0000000e+00   1.3947507e-05  -3.4812251e-05  -3.4933683e-05  -7.1287051e-05  -2.2096840e-05   0.0000000e+00   0.0000000e+00  -1.7507072e-05   7.5298293e-05  -1.8543663e-05  -1.1522246e-04  -7.5125135e-05  -2.7867533e-04  -3.7932170e-05  -5.9675998e-05   1.2103634e-06  -9.8511768e-05  -8.3502644e-05   0.0000000e+00  -2.2609894e-04  -1.0467139e-05  -1.8372190e-05  -6.5561602e-06   2.2266379e-05  -4.2191101e-05  -2.3417614e-05   0.0000000e+00   0.0000000e+00  -1.1223585e-05  -4.7293462e-06   0.0000000e+00  -3.7677488e-05   0.0000000e+00   0.0000000e+00   0.0000000e+00   0.0000000e+00   0.0000000e+00   0.0000000e+00  -6.1784170e-05  -3.5128910e-05  -4.0530371e-05  -2.4250936e-05  -1.2260857e-06   0.0000000e+00   0.0000000e+00   7.8229506e-07  -7.3650683e-05  -3.7978485e-06   1.3970066e-05  -2.1996051e-05   2.3253795e-05  -2.7071139e-05  -3.0734211e-05  -1.1419067e-05  -5.5394632e-06  -5.4649863e-06   0.0000000e+00   3.0227709e-05   9.4836750e-05  -3.9773617e-05  -1.2841592e-04  -1.3247769e-04   3.0512259e-05  -3.4580594e-06   0.0000000e+00   0.0000000e+00  -9.4838587e-05  -7.2415180e-05   0.0000000e+00  -5.5736289e-05   0.0000000e+00   0.0000000e+00   0.0000000e+00   0.0000000e+00   0.0000000e+00   0.0000000e+00  -5.2677408e-05  -4.7604230e-05  -3.2254858e-05  -6.4212098e-05  -3.6938039e-05   0.0000000e+00   0.0000000e+00  -2.8740847e-05  -4.8583915e-05  -7.5573908e-05  -2.1506177e-05  -2.4173054e-04  -4.9179663e-05  -7.5645353e-05  -2.9764907e-05  -3.0746633e-05  -2.3680987e-05  -1.0665461e-04   0.0000000e+00   1.0227824e-06   6.1934756e-05  -2.8439087e-05  -3.8417847e-06  -1.1070431e-04   2.4417001e-05   9.0860268e-05   0.0000000e+00   0.0000000e+00   1.3539762e-05   2.7329954e-05   0.0000000e+00   4.2185910e-05   0.0000000e+00   0.0000000e+00   0.0000000e+00   0.0000000e+00   0.0000000e+00   0.0000000e+00   5.5109441e-05  -7.7713466e-05   2.8107673e-04   1.3554447e-06   9.1705963e-05   0.0000000e+00   0.0000000e+00   2.1014327e-04   4.0856447e-04  -1.9835960e-04   3.8472442e-04   2.4857253e-04  -2.4042472e-04   1.3303882e-04   3.1774542e-04   1.4640553e-04   5.5961205e-05   2.2635835e-04   0.0000000e+00   9.4845792e-05
   6.5513130e-05   2.7902235e-05   4.6896895e-05   8.2134013e-05   7.0548719e-05   3.9345208e-05   0.0000000e+00   0.0000000e+00   2.6498895e-05   2.0430178e-05   0.0000000e+00   4.7294352e-05   0.0000000e+00   0.0000000e+00   0.0000000e+00   0.0000000e+00   0.0000000e+00   0.0000000e+00   6.2993923e-05   4.1499710e-05   5.3609690e-05   2.4512198e-05   2.7791147e-05   0.0000000e+00   0.0000000e+00   4.7350238e-05   6.0578144e-05  -9.2242364e-06   4.5060054e-05  -6.0505453e-05   9.2100351e-05   5.3848964e-05   5.7841847e-05   5.2937217e-05   4.2081265e-05   1.9411684e-05   0.0000000e+00   8.6868104e-06  -3.6906189e-04  -1.2617448e-04  -1.6145957e-05  -8.0187922e-05   2.5572597e-05  -4.4580876e-05   0.0000000e+00   0.0000000e+00  -3.8379288e-06   6.4139229e-06   0.0000000e+00   1.2900477e-07   0.0000000e+00   0.0000000e+00   0.0000000e+00   0.0000000e+00   0.0000000e+00   0.0000000e+00   7.7572927e-06  -1.2096613e-05   1.7464360e-05  -2.4875911e-05  -5.7544778e-06   0.0000000e+00   0.0000000e+00  -1.6280141e-05   4.4520309e-05  -8.4707410e-05   5.1848256e-05   7.8012739e-05   1.0237590e-04  -2.4631704e-05   4.4185772e-05   3.5904257e-05   5.5882109e-05   1.7749283e-04   0.0000000e+00   1.0640624e-05   1.2286950e-04   2.1804037e-04  -2.1632554e-04   1.2510546e-05   7.1664831e-05   3.1749535e-05   0.0000000e+00   0.0000000e+00  -2.7613565e-04  -8.1510906e-05   0.0000000e+00  -3.4159659e-05   0.0000000e+00   0.0000000e+00   0.0000000e+00   0.0000000e+00   0.0000000e+00   0.0000000e+00  -7.8300533e-06   2.5301842e-05   2.1112655e-04   2.5089738e-05   1.4298735e-05   0.0000000e+00   0.0000000e+00   1.2928106e-04   9.0608698e-05   2.4930710e-05   5.3539033e-05  -2.4665891e-04  -4.8039446e-04   1.8014493e-04   2.8945986e-05   1.8854590e-05  -8.4998366e-05  -3.0178625e-04   0.0000000e+00  -2.2030070e-05  -1.7173922e-05  -1.9427406e-05  -1.5800837e-05  -2.4096607e-05   2.6405099e-05  -6.4108254e-06   0.0000000e+00   0.0000000e+00  -1.3817450e-05  -5.1615155e-06   0.0000000e+00  -1.2099691e-05   0.0000000e+00   0.0000000e+00   0.0000000e+00   0.0000000e+00   0.0000000e+00   0.0000000e+00  -8.7809659e-06  -2.3565787e-05  -1.3220003e-05  -1.5505556e-05  -1.4814814e-06   0.0000000e+00   0.0000000e+00  -1.2897806e-05  -1.5845269e-05  -2.1357414e-05   2.2531857e-05   1.6793124e-05   2.2308579e-05  -2.2658208e-05  -1.2541138e-05  -2.3355999e-06   5.8117980e-06   9.7412981e-06   0.0000000e+00  -1.9499091e-05   3.8002427e-05  -5.3338304e-05  -1.6176848e-04  -1.3589345e-04  -1.2230830e-04  -5.7044863e-05   0.0000000e+00   0.0000000e+00  -1.5602946e-04  -1.0627461e-04   0.0000000e+00  -1.1656696e-04   0.0000000e+00   0.0000000e+00   0.0000000e+00   0.0000000e+00   0.0000000e+00   0.0000000e+00  -9.8799597e-05  -1.3538986e-04  -1.2942041e-04  -1.3573689e-04  -5.2426583e-05   0.0000000e+00   0.0000000e+00  -8.7644002e-05  -1.1816570e-04  -5.5225603e-05  -3.6034926e-06   1.2041438e-04   6.2616484e-06  -9.5105851e-05  -9.6652077e-05  -1.2586487e-05   2.7068343e-05   4.8096898e-05   0.0000000e+00   6.8782279e-05  -7.2041681e-05  -8.4353189e-05  -5.3254236e-05  -6.5799405e-05  -4.1341649e-05  -4.7217939e-05   0.0000000e+00   0.0000000e+00  -5.0089298e-05  -5.4221083e-05   0.0000000e+00  -5.7154117e-05   0.0000000e+00   0.0000000e+00   0.0000000e+00   0.0000000e+00   0.0000000e+00   0.0000000e+00  -4.1558120e-05  -6.5790768e-05  -6.1972824e-05  -7.6530469e-05  -3.3307129e-05   0.0000000e+00   0.0000000e+00  -5.7448224e-05  -4.9865141e-05  -4.1166996e-05  -3.5044991e-05  -5.3478428e-05  -1.3558528e-04  -5.3387528e-05  -5.2089847e-05  -3.8629500e-05  -4.3422126e-05  -7.5736559e-05   0.0000000e+00  -1.4550069e-05  -9.5437796e-07  -3.5339682e-05   3.6104888e-05   1.3134740e-05   1.0030440e-04   4.3212826e-05   0.0000000e+00   0.0000000e+00   6.2874092e-05   3.2735867e-05   0.0000000e+00   3.6952516e-05   0.0000000e+00   0.0000000e+00   0.0000000e+00   0.0000000e+00   0.0000000e+00   0.0000000e+00   5.8660792e-05   6.6412837e-05   7.8701168e-05   3.4939740e-05   4.8674050e-05   0.0000000e+00   0.0000000e+00   7.1031196e-05   5.9231019e-05   7.8892019e-05  -1.8942113e-06  -1.1030420e-04  -1.7439946e-05   5.9767485e-05   5.0342250e-06   1.9659538e-05   2.2597188e-05  -7.8210429e-05   0.0000000e+00   9.2173829e-06   1.5661389e-05  -1.5023305e-04  -2.8678748e-05  -3.6573644e-05   6.7756230e-05   2.7412300e-05   0.0000000e+00   0.0000000e+00   4.0663070e-05  -1.3863349e-05   0.0000000e+00  -3.6782175e-05   0.0000000e+00   0.0000000e+00   0.0000000e+00   0.0000000e+00   0.0000000e+00   0.0000000e+00   1.6493361e-06  -4.7826458e-05  -4.9559144e-05  -7.3038388e-05  -2.9976563e-05   0.0000000e+00   0.0000000e+00  -2.6079140e-05   6.9376669e-05  -1.8321630e-05  -1.2569183e-04  -9.2605245e-05  -3.0824342e-04  -5.7599920e-05  -8.0000134e-05  -7.3532422e-06  -1.1036629e-04  -1.0650292e-04   0.0000000e+00  -2.5537896e-04  -1.9364357e-05  -2.1654702e-05  -1.7615946e-05   1.1911940e-05  -5.0084657e-05  -3.2488407e-05   0.0000000e+00   0.0000000e+00  -2.3641017e-05  -1.0977147e-05   0.0000000e+00  -5.0013125e-05   0.0000000e+00   0.0000000e+00   0.0000000e+00   0.0000000e+00   0.0000000e+00   0.0000000e+00  -7.6619758e-05  -4.5852643e-05  -5.5866139e-05  -3.0279902e-05  -6.1814996e-06   0.0000000e+00   0.0000000e+00  -8.7601748e-06  -8.7689026e-05  -8.3751276e-06   1.3651830e-05  -3.1645524e-05   2.6108335e-05  -3.8034987e-05  -4.9128834e-05  -1.8931496e-05  -7.7343187e-06  -9.7875132e-06   0.0000000e+00   3.0870190e-05   1.0121735e-04  -4.1665635e-05  -1.3349056e-04  -1.4058808e-04   2.9984440e-05  -5.1364557e-06   0.0000000e+00   0.0000000e+00  -9.6894287e-05  -7.5570718e-05   0.0000000e+00  -5.9744526e-05   0.0000000e+00   0.0000000e+00   0.0000000e+00   0.0000000e+00   0.0000000e+00   0.0000000e+00  -5.4654709e-05  -4.8349446e-05  -3.5360591e-05  -6.9155704e-05  -3.8045362e-05   0.0000000e+00   0.0000000e+00  -2.8419056e-05  -5.3933794e-05  -7.7459027e-05  -2.1014799e-05  -2.5757613e-04  -5.7722538e-05  -8.2310585e-05  -3.0393634e-05  -3.3127634e-05  -2.4347148e-05  -1.1760806e-04   0.0000000e+00   4.3166501e-06   6.0371845e-05  -2.8332305e-05  -2.1328734e-05  -1.2317758e-04   3.1761953e-05   1.0105778e-04   0.0000000e+00   0.0000000e+00  -4.8033780e-06   1.9375037e-05   0.0000000e+00   3.6426327e-05   0.0000000e+00   0.0000000e+00   0.0000000e+00   0.0000000e+00   0.0000000e+00   0.0000000e+00   4.9834357e-05  -9.3962222e-05   2.9786503e-04  -2.0496444e-06   9.3642331e-05   0.0000000e+00   0.0000000e+00   2.2018963e-04   4.4860472e-04  -2.3590342e-04   4.1424223e-04   2.4297790e-04  -2.8499324e-04   1.3493934e-04   3.4120493e-04   1.6328407e-04   5.4777226e-05   2.3749828e-04   0.0000000e+00   9.7918671e-05
   7.2699948e-05   2.9828609e-05   4.5775417e-05   8.4230339e-05   7.6524339e-05   4.1580008e-05   0.0000000e+00   0.0000000e+00   2.3411637e-05   2.0599487e-05   0.0000000e+00   4.8595010e-05   0.0000000e+00   0.0000000e+00   0.0000000e+00   0.0000000e+00   0.0000000e+00   0.0000000e+00   6.5845799e-05   4.1696600e-05   5.6100525e-05   2.3168680e-05   3.0276820e-05   0.0000000e+00   0.0000000e+00   5.1202158e-05   6.4669079e-05  -1.2303915e-05   5.3540280e-05  -6.4809421e-05   1.0393269e-04   5.5691431e-05   6.1197636e-05   5.7438759e-05   4.7656199e-05   2.2792952e-05   0.0000000e+00   9.4112928e-06  -4.5012409e-04  -1.4216188e-04  -7.4392432e-06  -7.8695096e-05   2.4554566e-05  -5.5037746e-05   0.0000000e+00   0.0000000e+00   1.0986309e-05   1.4366536e-05   0.0000000e+00   4.9470138e-06   0.0000000e+00   0.0000000e+00   0.0000000e+00   0.0000000e+00   0.0000000e+00   0.0000000e+00   6.5246293e-06  -1.1049312e-06   2.5591788e-05  -2.1830317e-05  -2.5436519e-06   0.0000000e+00   0.0000000e+00  -1.5604805e-05   4.4895123e-05  -8.0718340e-05   5.8187158e-05   1.1598901e-04   1.3350946e-04  -2.7131101e-05   5.5076778e-05   4.2462391e-05   7.3672508e-05   2.1670068e-04   0.0000000e+00   1.5279333e-05   1.5053073e-04   2.6094956e-04  -2.4934331e-04   1.6261855e-05   7.7230123e-05   3.7296711e-05   0.0000000e+00   0.0000000e+00  -3.2771212e-04  -9.9383561e-05   0.0000000e+00  -4.4305175e-05   0.0000000e+00   0.0000000e+00   0.0000000e+00   0.0000000e+00   0.0000000e+00   0.0000000e+00  -1.2428808e-05   1.8570766e-05   2.3046057e-04   3.3177151e-05   1.1566569e-05   0.0000000e+00   0.0000000e+00   1.3899030e-04   8.2264368e-05   1.3304544e-05   6.1761454e-05  -2.6516592e-04  -4.7408062e-04   1.9271546e-04  -1.7907732e-06   1.3975995e-05  -9.1204437e-05  -3.1649072e-04   0.0000000e+00  -2.5571736e-05  -3.2955016e-05  -2.1232028e-05  -1.8457484e-05  -2.5025451e-05   2.0327414e-05  -1.0440868e-05   0.0000000e+00   0.0000000e+00  -1.6205586e-05  -6.4561941e-06   0.0000000e+00  -1.4698533e-05   0.0000000e+00   0.0000000e+00   0.0000000e+00   0.0000000e+00   0.0000000e+00   0.0000000e+00  -1.2956549e-05  -2.4178643e-05  -1.6827228e-05  -1.5291376e-05  -2.5679264e-06   0.0000000e+00   0.0000000e+00  -1.7356321e-05  -2.1530954e-05  -2.1449506e-05   2.7644531e-05   2.1309284e-05   2.8010129e-05  -2.4070191e-05  -1.3475151e-05  -4.1813628e-06   6.8599939e-06   1.0991680e-05   0.0000000e+00  -1.8312057e-05   4.6713536e-05  -6.7067448e-05  -1.8224676e-04  -1.5977394e-04  -1.3322223e-04  -6.0059001e-05   0.0000000e+00   0.0000000e+00  -1.7149343e-04  -1.1658834e-04   0.0000000e+00  -1.2696072e-04   0.0000000e+00   0.0000000e+00   0.0000000e+00   0.0000000e+00   0.0000000e+00   0.0000000e+00  -1.0838120e-04  -1.4654263e-04  -1.3696149e-04  -1.5206687e-04  -5.6881367e-05   0.0000000e+00   0.0000000e+00  -9.5801849e-05  -1.2908747e-04  -5.6019678e-05  -8.3113910e-06   1.4277629e-04  -5.8668318e-06  -1.0434833e-04  -1.0284622e-04  -1.7777090e-05   2.3237418e-05   4.6541903e-05   0.0000000e+00   7.6318053e-05  -9.0019580e-05  -9.2553607e-05  -6.1791686e-05  -7.2802090e-05  -5.6932091e-05  -5.7298035e-05   0.0000000e+00   0.0000000e+00  -5.8265338e-05  -6.2877447e-05   0.0000000e+00  -6.8654642e-05   0.0000000e+00   0.0000000e+00   0.0000000e+00   0.0000000e+00   0.0000000e+00   0.0000000e+00  -5.2823030e-05  -7.5193469e-05  -7.1451437e-05  -8.3638829e-05  -3.9166184e-05   0.0000000e+00   0.0000000e+00  -6.8938792e-05  -6.2239474e-05  -4.4014441e-05  -4.3228763e-05  -5.6702804e-05  -1.5625591e-04  -6.2450285e-05  -6.4374774e-05  -4.5725572e-05  -4.9440549e-05  -8.8717717e-05   0.0000000e+00  -1.6010828e-05  -7.1809835e-06  -4.1175942e-05   3.6001741e-05   1.4250134e-05   1.0740307e-04   4.4153620e-05   0.0000000e+00   0.0000000e+00   6.6873466e-05   3.1300184e-05   0.0000000e+00   3.5966310e-05   0.0000000e+00   0.0000000e+00   0.0000000e+00   0.0000000e+00   0.0000000e+00   0.0000000e+00   5.6911465e-05   6.7446940e-05   8.2663531e-05   3.8614833e-05   5.1280671e-05   0.0000000e+00   0.0000000e+00   7.3129995e-05   6.2996879e-05   8.7114191e-05  -5.0439022e-06  -1.1716029e-04  -2.6180943e-05   6.0302814e-05   4.0906248e-06   1.6469456e-05   2.1739540e-05  -9.2613277e-05   0.0000000e+00   7.6267927e-06   3.9781000e-06  -1.6159752e-04  -4.3091539e-05  -5.0080057e-05   6.1576032e-05   1.8724748e-05   0.0000000e+00   0.0000000e+00   2.7105727e-05  -2.6285475e-05   0.0000000e+00  -5.5394036e-05   0.0000000e+00   0.0000000e+00   0.0000000e+00   0.0000000e+00   0.0000000e+00   0.0000000e+00  -1.4356680e-05  -6.3295114e-05  -6.6312385e-05  -7.4262525e-05  -3.8826020e-05   0.0000000e+00   0.0000000e+00  -3.5730406e-05   5.9822797e-05  -1.8293865e-05  -1.3435553e-04  -1.1305098e-04  -3.3458806e-04  -7.8499483e-05  -1.0155268e-04  -1.8203245e-05  -1.2054189e-04  -1.3139294e-04   0.0000000e+00  -2.8340302e-04  -2.9277490e-05  -2.4922841e-05  -2.9795291e-05  -6.5489584e-07  -5.8416551e-05  -4.2363067e-05   0.0000000e+00   0.0000000e+00  -3.7306862e-05  -1.7725029e-05   0.0000000e+00  -6.2832108e-05   0.0000000e+00   0.0000000e+00   0.0000000e+00   0.0000000e+00   0.0000000e+00   0.0000000e+00  -9.1187137e-05  -5.6652333e-05  -7.1859390e-05  -3.5872608e-05  -1.1462616e-05   0.0000000e+00   0.0000000e+00  -1.8921501e-05  -1.0038146e-04  -1.2665198e-05   1.3176744e-05  -4.0845693e-05   2.8008254e-05  -4.9216061e-05  -6.8951044e-05  -2.7276001e-05  -9.7370745e-06  -1.4435844e-05   0.0000000e+00   3.0087863e-05   1.0536728e-04  -4.2729701e-05  -1.3484601e-04  -1.4531320e-04   2.7886074e-05  -7.1626714e-06   0.0000000e+00   0.0000000e+00  -9.6111515e-05  -7.6943233e-05   0.0000000e+00  -6.2842851e-05   0.0000000e+00   0.0000000e+00   0.0000000e+00   0.0000000e+00   0.0000000e+00   0.0000000e+00  -5.5431049e-05  -4.8168420e-05  -3.8118494e-05  -7.2897949e-05  -3.8404073e-05   0.0000000e+00   0.0000000e+00  -2.7752349e-05  -5.8979783e-05  -7.7751608e-05  -2.0147729e-05  -2.6985070e-04  -6.6449461e-05  -8.7824906e-05  -3.1804414e-05  -3.4993077e-05  -2.5084057e-05  -1.2728842e-04   0.0000000e+00   8.1445548e-06   5.3139471e-05  -3.2070016e-05  -4.3831495e-05  -1.3756717e-04   3.5962904e-05   1.0680533e-04   0.0000000e+00   0.0000000e+00  -2.8276912e-05   7.2052737e-06   0.0000000e+00   2.6757344e-05   0.0000000e+00   0.0000000e+00   0.0000000e+00   0.0000000e+00   0.0000000e+00   0.0000000e+00   4.1351478e-05  -1.1124153e-04   3.0566887e-04  -9.8142699e-06   9.1707347e-05   0.0000000e+00   0.0000000e+00   2.2357856e-04   4.7844696e-04  -2.7218420e-04   4.3168492e-04   2.3372470e-04  -3.2910806e-04   1.3187698e-04   3.5639605e-04   1.7743750e-04   4.9697347e-05   2.4463011e-04   0.0000000e+00   9.8557937e-05
   7.9040535e-05   3.1145327e-05   4.3319550e-05   8.4550381e-05   8.1545570e-05   4.3109403e-05   0.0000000e+00   0.0000000e+00   1.9257268e-05   2.0182482e-05   0.0000000e+00   4.8658090e-05   0.0000000e+00   0.0000000e+00   0.0000000e+00   0.0000000e+00   0.0000000e+00   0.0000000e+00   6.7327480e-05   4.0499026e-05   5.7253802e-05   2.0714865e-05   3.2203153e-05   0.0000000e+00   0.0000000e+00   5.4056695e-05   6.7293051e-05  -1.5610494e-05   6.1316192e-05  -6.7717071e-05   1.1453284e-04   5.6077614e-05   6.3227023e-05   6.0891946e-05   5.2460678e-05   2.6119981e-05   0.0000000e+00   1.0135868e-05  -5.2769508e-04  -1.5520756e-04   3.4562825e-06  -7.4915118e-05   2.3566857e-05  -6.5272297e-05   0.0000000e+00   0.0000000e+00   2.9183077e-05   2.4501890e-05   0.0000000e+00   1.1558910e-05   0.0000000e+00   0.0000000e+00   0.0000000e+00   0.0000000e+00   0.0000000e+00   0.0000000e+00   5.5075505e-06   1.2454142e-05   3.4421411e-05  -1.7891256e-05   1.8213112e-06   0.0000000e+00   0.0000000e+00  -1.3040557e-05   4.5799912e-05  -7.3329624e-05   6.5219514e-05   1.5798992e-04   1.6765868e-04  -2.9196505e-05   6.6240655e-05   4.8847327e-05   9.3416851e-05   2.5737613e-04   0.0000000e+00   1.8801909e-05   1.7731404e-04   3.0599225e-04  -2.8421434e-04   1.8791298e-05   7.9849410e-05   3.9739923e-05   0.0000000e+00   0.0000000e+00  -3.8035394e-04  -1.1912011e-04   0.0000000e+00  -5.7461372e-05   0.0000000e+00   0.0000000e+00   0.0000000e+00   0.0000000e+00   0.0000000e+00   0.0000000e+00  -1.9068294e-05   7.4158355e-06   2.4168862e-04   4.0420606e-05   6.8989696e-06   0.0000000e+00   0.0000000e+00   1.4426063e-04   6.6042359e-05  -1.6128276e-06   6.7156264e-05  -2.8080876e-04  -4.5533182e-04   2.0051639e-04  -3.9094579e-05   6.6812366e-06  -9.7603395e-05  -3.2798563e-04   0.0000000e+00  -2.9705223e-05  -4.8992494e-05  -2.1782535e-05  -2.0493982e-05  -2.5122991e-05   1.3683161e-05  -1.4255201e-05   0.0000000e+00   0.0000000e+00  -1.7984109e-05  -7.2477935e-06   0.0000000e+00  -1.6817641e-05   0.0000000e+00   0.0000000e+00   0.0000000e+00   0.0000000e+00   0.0000000e+00   0.0000000e+00  -1.7225692e-05  -2.3748432e-05  -2.0107669e-05  -1.4039372e-05  -3.4815890e-06   0.0000000e+00   0.0000000e+00  -2.1725614e-05  -2.6839518e-05  -2.0561762e-05   3.2443350e-05   2.7400367e-05   3.4181812e-05  -2.4835568e-05  -1.3577890e-05  -6.1222189e-06   7.8975661e-06   1.2526617e-05   0.0000000e+00  -1.6794543e-05   5.4915512e-05  -8.0506324e-05  -2.0055917e-04  -1.8284425e-04  -1.4208942e-04  -6.1976602e-05   0.0000000e+00   0.0000000e+00  -1.8455799e-04  -1.2451356e-04   0.0000000e+00  -1.3508917e-04   0.0000000e+00   0.0000000e+00   0.0000000e+00   0.0000000e+00   0.0000000e+00   0.0000000e+00  -1.1630079e-04  -1.5476926e-04  -1.4140898e-04  -1.6606000e-04  -6.0241226e-05   0.0000000e+00   0.0000000e+00  -1.0206803e-04  -1.3805270e-04  -5.5387149e-05  -1.1355931e-05   1.6566374e-04  -1.7125158e-05  -1.1204685e-04  -1.0702141e-04  -2.2766960e-05   1.9368905e-05   4.4622159e-05   0.0000000e+00   8.2944144e-05  -1.0786747e-04  -9.9327273e-05  -7.0412504e-05  -7.9249208e-05  -7.3257502e-05  -6.7182360e-05   0.0000000e+00   0.0000000e+00  -6.6636238e-05  -7.1424081e-05   0.0000000e+00  -8.0300404e-05   0.0000000e+00   0.0000000e+00   0.0000000e+00   0.0000000e+00   0.0000000e+00   0.0000000e+00  -6.4601058e-05  -8.4379291e-05  -8.0357670e-05  -8.9443046e-05  -4.4856053e-05   0.0000000e+00   0.0000000e+00  -8.0239168e-05  -7.4731315e-05  -4.5828148e-05  -5.1826507e-05  -5.9166047e-05  -1.7718013e-04  -7.1124705e-05  -7.7137519e-05  -5.2764777e-05  -5.5400189e-05  -1.0143979e-04   0.0000000e+00  -1.7599550e-05  -1.2799912e-05  -4.5352844e-05   3.6266225e-05   1.6019083e-05   1.1370477e-04   4.4675974e-05   0.0000000e+00   0.0000000e+00   7.0864977e-05   2.9920947e-05   0.0000000e+00   3.5008880e-05   0.0000000e+00   0.0000000e+00   0.0000000e+00   0.0000000e+00   0.0000000e+00   0.0000000e+00   5.4049649e-05   6.7502049e-05   8.5694840e-05   4.2774778e-05   5.3296285e-05   0.0000000e+00   0.0000000e+00   7.4547396e-05   6.7056949e-05   9.4969868e-05  -8.1716095e-06  -1.2267658e-04  -3.3789516e-05   6.0276744e-05   3.9334391e-06   1.3045940e-05   2.0340016e-05  -1.0686494e-04   0.0000000e+00   6.3735492e-06  -1.0548093e-05  -1.7284064e-04  -6.0025276e-05  -6.6865966e-05   5.2025784e-05   7.2210156e-06   0.0000000e+00   0.0000000e+00   8.4272291e-06  -4.2039931e-05   0.0000000e+00  -7.7266709e-05   0.0000000e+00   0.0000000e+00   0.0000000e+00   0.0000000e+00   0.0000000e+00   0.0000000e+00  -3.3885851e-05  -8.1102068e-05  -8.5010054e-05  -7.5560847e-05  -4.8485770e-05   0.0000000e+00   0.0000000e+00  -4.6317099e-05   4.7136806e-05  -1.8817530e-05  -1.4131388e-04  -1.3627304e-04  -3.5773900e-04  -9.9865529e-05  -1.2334482e-04  -3.1177456e-05  -1.2888336e-04  -1.5765807e-04   0.0000000e+00  -3.1011791e-04  -3.9654469e-05  -2.7877877e-05  -4.2374505e-05  -1.4684642e-05  -6.6882463e-05  -5.2630172e-05   0.0000000e+00   0.0000000e+00  -5.1490826e-05  -2.4560373e-05   0.0000000e+00  -7.5600515e-05   0.0000000e+00   0.0000000e+00   0.0000000e+00   0.0000000e+00   0.0000000e+00   0.0000000e+00  -1.0492446e-04  -6.7026843e-05  -8.7822458e-05  -4.0621476e-05  -1.6754638e-05   0.0000000e+00   0.0000000e+00  -2.9088324e-05  -1.1118942e-04  -1.6224527e-05   1.2614285e-05  -4.8839693e-05   2.8682252e-05  -6.0122277e-05  -8.9291324e-05  -3.6196061e-05  -1.1404035e-05  -1.9187313e-05   0.0000000e+00   2.7950736e-05   1.0744223e-04  -4.3135903e-05  -1.3258823e-04  -1.4664940e-04   2.4354347e-05  -9.4424086e-06   0.0000000e+00   0.0000000e+00  -9.2649401e-05  -7.6669251e-05   0.0000000e+00  -6.5062073e-05   0.0000000e+00   0.0000000e+00   0.0000000e+00   0.0000000e+00   0.0000000e+00   0.0000000e+00  -5.5091014e-05  -4.7254967e-05  -4.0484062e-05  -7.5423252e-05  -3.8129404e-05   0.0000000e+00   0.0000000e+00  -2.7020268e-05  -6.3605284e-05  -7.6732965e-05  -1.9072526e-05  -2.7923306e-04  -7.5138894e-05  -9.2193534e-05  -3.4388201e-05  -3.6357109e-05  -2.6079896e-05  -1.3565496e-04   0.0000000e+00   1.2504268e-05   4.0175028e-05  -4.0567527e-05  -7.0280977e-05  -1.5364993e-04   3.6127528e-05   1.0758985e-04   0.0000000e+00   0.0000000e+00  -5.5278602e-05  -8.4807014e-06   0.0000000e+00   1.3952066e-05   0.0000000e+00   0.0000000e+00   0.0000000e+00   0.0000000e+00   0.0000000e+00   0.0000000e+00   3.0618983e-05  -1.2873458e-04   3.0513005e-04  -2.2023705e-05   8.6347594e-05   0.0000000e+00   0.0000000e+00   2.2105036e-04   4.9804018e-04  -3.0601608e-04   4.3698365e-04   2.2289873e-04  -3.7144061e-04   1.2472550e-04   3.6380342e-04   1.8882903e-04   4.0854279e-05   2.4854217e-04   0.0000000e+00   9.7019821e-05
   8.4282947e-05   3.1676048e-05   3.9519691e-05   8.3038988e-05   8.5511502e-05   4.3868554e-05   0.0000000e+00   0.0000000e+00   1.4074673e-05   1.9096558e-05   0.0000000e+00   4.7409005e-05   0.0000000e+00   0.0000000e+00   0.0000000e+00   0.0000000e+00   0.0000000e+00   0.0000000e+00   6.7365752e-05   3.7800933e-05   5.6932179e-05   1.7101359e-05   3.3450687e-05   0.0000000e+00   0.0000000e+00   5.5706396e-05   6.8240369e-05  -1.9185709e-05   6.8064623e-05  -6.9259893e-05   1.2360417e-04   5.4896584e-05   6.3748024e-05   6.3152812e-05   5.6277402e-05   2.9247064e-05   0.0000000e+00   1.0846417e-05  -5.9937283e-04  -1.6477500e-04   1.6113042e-05  -6.9466770e-05   2.2799650e-05  -7.4936937e-05   0.0000000e+00   0.0000000e+00   5.0207824e-05   3.6862470e-05   0.0000000e+00   2.0059693e-05   0.0000000e+00   0.0000000e+00   0.0000000e+00   0.0000000e+00   0.0000000e+00   0.0000000e+00   5.0791654e-06   2.8273799e-05   4.3686479e-05  -1.3249822e-05   7.3750692e-06   0.0000000e+00   0.0000000e+00  -8.2404067e-06   4.7864400e-05  -6.2856367e-05   7.3253252e-05   2.0280285e-04   2.0424512e-04  -3.0768309e-05   7.7504503e-05   5.4948038e-05   1.1485152e-04   2.9844159e-04   0.0000000e+00   2.0656586e-05   2.0200244e-04   3.5200245e-04  -3.2078647e-04   1.9518967e-05   7.9097512e-05   3.8474390e-05   0.0000000e+00   0.0000000e+00  -4.3287459e-04  -1.4061326e-04   0.0000000e+00  -7.3796690e-05   0.0000000e+00   0.0000000e+00   0.0000000e+00   0.0000000e+00   0.0000000e+00   0.0000000e+00  -2.7951729e-05  -8.2462599e-06   2.4380657e-04   4.6099936e-05   2.2872094e-07   0.0000000e+00   0.0000000e+00   1.4461782e-04   4.1965487e-05  -1.9615773e-05   6.9278799e-05  -2.9412626e-04  -4.2597985e-04   2.0335169e-04  -8.1003251e-05  -2.8015481e-06  -1.0442813e-04  -3.3701731e-04   0.0000000e+00  -3.4488849e-05  -6.4191548e-05  -2.0841170e-05  -2.1659709e-05  -2.4322336e-05   7.1747180e-06  -1.7510986e-05   0.0000000e+00   0.0000000e+00  -1.8918607e-05  -7.3272630e-06   0.0000000e+00  -1.8210087e-05   0.0000000e+00   0.0000000e+00   0.0000000e+00   0.0000000e+00   0.0000000e+00   0.0000000e+00  -2.1318949e-05  -2.2179462e-05  -2.2787792e-05  -1.1691543e-05  -4.1131152e-06   0.0000000e+00   0.0000000e+00  -2.5699849e-05  -3.1380908e-05  -1.8688498e-05   3.6659138e-05   3.5126580e-05   4.0683413e-05  -2.4880359e-05  -1.2629923e-05  -8.0925906e-06   8.8585110e-06   1.4369296e-05   0.0000000e+00  -1.5141322e-05   6.2298653e-05  -9.2999533e-05  -2.1611501e-04  -2.0427086e-04  -1.4891255e-04  -6.2840354e-05   0.0000000e+00   0.0000000e+00  -1.9494465e-04  -1.2976049e-04   0.0000000e+00  -1.4079720e-04   0.0000000e+00   0.0000000e+00   0.0000000e+00   0.0000000e+00   0.0000000e+00   0.0000000e+00  -1.2244479e-04  -1.5988632e-04  -1.4275479e-04  -1.7720269e-04  -6.2466710e-05   0.0000000e+00   0.0000000e+00  -1.0633268e-04  -1.4508353e-04  -5.3331065e-05  -1.2433939e-05   1.8846938e-04  -2.6781644e-05  -1.1804383e-04  -1.0943391e-04  -2.7319260e-05   1.5814098e-05   4.2547637e-05   0.0000000e+00   8.8581076e-05  -1.2505700e-04  -1.0457489e-04  -7.8956357e-05  -8.5138021e-05  -8.9813918e-05  -7.6545764e-05   0.0000000e+00   0.0000000e+00  -7.5003961e-05  -7.9658812e-05   0.0000000e+00  -9.1742694e-05   0.0000000e+00   0.0000000e+00   0.0000000e+00   0.0000000e+00   0.0000000e+00   0.0000000e+00  -7.6496078e-05  -9.3169671e-05  -8.8424931e-05  -9.3843603e-05  -5.0200865e-05   0.0000000e+00   0.0000000e+00  -9.0922806e-05  -8.6833156e-05  -4.6531669e-05  -6.0636988e-05  -6.0900086e-05  -1.9811849e-04  -7.9110810e-05  -8.9959241e-05  -5.9514249e-05  -6.1238754e-05  -1.1353637e-04   0.0000000e+00  -1.9411849e-05  -1.7520893e-05  -4.7395809e-05   3.7253513e-05   1.8611599e-05   1.1925945e-04   4.4851737e-05   0.0000000e+00   0.0000000e+00   7.4974331e-05   2.8871576e-05   0.0000000e+00   3.4222999e-05   0.0000000e+00   0.0000000e+00   0.0000000e+00   0.0000000e+00   0.0000000e+00   0.0000000e+00   5.0232633e-05   6.6712629e-05   8.7749655e-05   4.7519107e-05   5.4695174e-05   0.0000000e+00   0.0000000e+00   7.5370401e-05   7.1296549e-05   1.0243905e-04  -1.1120112e-05  -1.2676891e-04  -3.9590402e-05   5.9840076e-05   4.2626554e-06   9.5163367e-06   1.8471200e-05  -1.2054766e-04   0.0000000e+00   5.7290899e-06  -2.7617693e-05  -1.8438273e-04  -7.9231337e-05  -8.7013514e-05   3.9204645e-05  -6.8254897e-06   0.0000000e+00   0.0000000e+00  -1.5063464e-05  -6.1028944e-05   0.0000000e+00  -1.0205588e-04   0.0000000e+00   0.0000000e+00   0.0000000e+00   0.0000000e+00   0.0000000e+00   0.0000000e+00  -5.6639259e-05  -1.0105273e-04  -1.0544061e-04  -7.7538204e-05  -5.8786110e-05   0.0000000e+00   0.0000000e+00  -5.7713184e-05   3.1932409e-05  -2.0235352e-05  -1.4679983e-04  -1.6190362e-04  -3.7791001e-04  -1.2102049e-04  -1.4437452e-04  -4.6025284e-05  -1.3539780e-04  -1.8477631e-04   0.0000000e+00  -3.3556919e-04  -4.9866861e-05  -3.0158882e-05  -5.4573728e-05  -2.9313420e-05  -7.5081759e-05  -6.2816064e-05   0.0000000e+00   0.0000000e+00  -6.5404536e-05  -3.1050075e-05   0.0000000e+00  -8.7760276e-05   0.0000000e+00   0.0000000e+00   0.0000000e+00   0.0000000e+00   0.0000000e+00   0.0000000e+00  -1.1731257e-04  -7.6483857e-05  -1.0305775e-04  -4.4132970e-05  -2.1747751e-05   0.0000000e+00   0.0000000e+00  -3.8664956e-05  -1.1968971e-04  -1.8648232e-05   1.2009458e-05  -5.4937425e-05   2.7918581e-05  -7.0291530e-05  -1.0919800e-04  -4.5413046e-05  -1.2617264e-05  -2.3806554e-05   0.0000000e+00   2.4642562e-05   1.0772764e-04  -4.3080770e-05  -1.2697060e-04  -1.4473075e-04   1.9644973e-05  -1.1841892e-05   0.0000000e+00   0.0000000e+00  -8.6768848e-05  -7.4957751e-05   0.0000000e+00  -6.6447448e-05   0.0000000e+00   0.0000000e+00   0.0000000e+00   0.0000000e+00   0.0000000e+00   0.0000000e+00  -5.3743185e-05  -4.5799253e-05  -4.2415833e-05  -7.6751241e-05  -3.7344516e-05   0.0000000e+00   0.0000000e+00  -2.6484996e-05  -6.7654436e-05  -7.4707004e-05  -1.7981341e-05  -2.8647546e-04  -8.3585905e-05  -9.5458568e-05  -3.8407446e-05  -3.7260574e-05  -2.7506105e-05  -1.4273295e-04   0.0000000e+00   1.7384272e-05   2.1851030e-05  -5.4299820e-05  -9.9194439e-05  -1.7077858e-04   3.1647883e-05   1.0327552e-04   0.0000000e+00   0.0000000e+00  -8.3764631e-05  -2.6627289e-05   0.0000000e+00  -8.7258885e-07   0.0000000e+00   0.0000000e+00   0.0000000e+00   0.0000000e+00   0.0000000e+00   0.0000000e+00   1.8835904e-05  -1.4547175e-04   2.9751917e-04  -3.8276881e-05   7.8295499e-05   0.0000000e+00   0.0000000e+00   2.1378530e-04   5.0807160e-04  -3.3632745e-04   4.3092695e-04   2.1235103e-04  -4.1065596e-04   1.1471015e-04   3.6440829e-04   1.9761809e-04   2.8687123e-05   2.5013419e-04   0.0000000e+00   9.3657714e-05
   8.8188353e-05   3.1242323e-05   3.4359364e-05   7.9635858e-05   8.8330501e-05   4.3795076e-05   0.0000000e+00   0.0000000e+00   7.8938611e-06   1.7253592e-05   0.0000000e+00   4.4795302e-05   0.0000000e+00   0.0000000e+00   0.0000000e+00   0.0000000e+00   0.0000000e+00   0.0000000e+00   6.5910559e-05   3.3527739e-05   5.5029224e-05   1.2302365e-05   3.3914431e-05   0.0000000e+00   0.0000000e+00   5.5965155e-05   6.7346696e-05  -2.3092240e-05   7.3536556e-05  -6.9557526e-05   1.3092196e-04   5.2072517e-05   6.2601228e-05   6.4115681e-05   5.8936487e-05   3.2022135e-05   0.0000000e+00   1.1513477e-05  -6.6328907e-04  -1.7057437e-04   2.9968779e-05  -6.3120029e-05   2.2373494e-05  -8.3757216e-05   0.0000000e+00   0.0000000e+00   7.3306452e-05   5.1388867e-05   0.0000000e+00   3.0443241e-05   0.0000000e+00   0.0000000e+00   0.0000000e+00   0.0000000e+00   0.0000000e+00   0.0000000e+00   5.6046652e-06   4.5938830e-05   5.3104502e-05  -8.0675791e-06   1.4111547e-05   0.0000000e+00   0.0000000e+00  -9.4458252e-07   5.1655495e-05  -4.9748725e-05   8.2593842e-05   2.4907966e-04   2.4263213e-04  -3.1815631e-05   8.8745280e-05   6.0685935e-05   1.3766751e-04   3.3880518e-04   0.0000000e+00   2.0428410e-05   2.2352287e-04   3.9772741e-04  -3.5872848e-04   1.7974048e-05   7.4731589e-05   3.3200008e-05   0.0000000e+00   0.0000000e+00  -4.8402316e-04  -1.6365048e-04   0.0000000e+00  -9.3260188e-05   0.0000000e+00   0.0000000e+00   0.0000000e+00   0.0000000e+00   0.0000000e+00   0.0000000e+00  -3.9170033e-05  -2.8184712e-05   2.3642889e-04   4.9584549e-05  -8.3758447e-06   0.0000000e+00   0.0000000e+00   1.3988958e-04   1.0600842e-05  -4.0359048e-05   6.8015431e-05  -3.0587851e-04  -3.8816926e-04   2.0132292e-04  -1.2514483e-04  -1.4050179e-05  -1.1179442e-04  -3.4436754e-04   0.0000000e+00  -3.9962039e-05  -7.7489289e-05  -1.8246831e-05  -2.1735567e-05  -2.2588765e-05   1.5098366e-06  -1.9887260e-05   0.0000000e+00   0.0000000e+00  -1.8807095e-05  -6.5115216e-06   0.0000000e+00  -1.8650006e-05   0.0000000e+00   0.0000000e+00   0.0000000e+00   0.0000000e+00   0.0000000e+00   0.0000000e+00  -2.4958869e-05  -1.9419261e-05  -2.4618232e-05  -8.2501107e-06  -4.3710057e-06   0.0000000e+00   0.0000000e+00  -2.8980679e-05  -3.4807116e-05  -1.5891834e-05   4.0067253e-05   4.4399979e-05   4.7372176e-05  -2.4151203e-05  -1.0454608e-05  -1.0026609e-05   9.6774528e-06   1.6514241e-05   0.0000000e+00  -1.3543715e-05   6.8647150e-05  -1.0392206e-04  -2.2842844e-04  -2.2326264e-04  -1.5379650e-04  -6.2730631e-05   0.0000000e+00   0.0000000e+00  -2.0247735e-04  -1.3217424e-04   0.0000000e+00  -1.4404364e-04   0.0000000e+00   0.0000000e+00   0.0000000e+00   0.0000000e+00   0.0000000e+00   0.0000000e+00  -1.2678699e-04  -1.6186099e-04  -1.4113662e-04  -1.8510848e-04  -6.3580959e-05   0.0000000e+00   0.0000000e+00  -1.0860498e-04  -1.5032663e-04  -4.9873464e-05  -1.1434585e-05   2.1055630e-04  -3.4276036e-05  -1.2225120e-04  -1.1046998e-04  -3.1261366e-05   1.2849523e-05   4.0470548e-05   0.0000000e+00   9.3222839e-05  -1.4113095e-04  -1.0828063e-04  -8.7255472e-05  -9.0487081e-05  -1.0613798e-04  -8.5100809e-05   0.0000000e+00   0.0000000e+00  -8.3142681e-05  -8.7379505e-05   0.0000000e+00  -1.0262694e-04   0.0000000e+00   0.0000000e+00   0.0000000e+00   0.0000000e+00   0.0000000e+00   0.0000000e+00  -8.8090268e-05  -1.0138850e-04  -9.5429988e-05  -9.6808254e-05  -5.5039795e-05   0.0000000e+00   0.0000000e+00  -1.0058084e-04  -9.8038254e-05  -4.6097921e-05  -6.9454456e-05  -6.1960643e-05  -2.1882132e-04  -8.6132252e-05  -1.0238865e-04  -6.5739391e-05  -6.6902137e-05  -1.2467367e-04   0.0000000e+00  -2.1540068e-05  -2.1221918e-05  -4.6952586e-05   3.9234547e-05   2.2147083e-05   1.2409522e-04   4.4710992e-05   0.0000000e+00   0.0000000e+00   7.9254101e-05   2.8348370e-05   0.0000000e+00   3.3644395e-05   0.0000000e+00   0.0000000e+00   0.0000000e+00   0.0000000e+00   0.0000000e+00   0.0000000e+00   4.5575015e-05   6.5176990e-05   8.8738858e-05   5.2900907e-05   5.5431501e-05   0.0000000e+00   0.0000000e+00   7.5613134e-05   7.5447196e-05   1.0951046e-04  -1.3786378e-05  -1.2933477e-04  -4.3066143e-05   5.9077983e-05   4.5938269e-06   5.9266223e-06   1.6191162e-05  -1.3330197e-04   0.0000000e+00   5.9249000e-06  -4.6862428e-05  -1.9660078e-04  -1.0035453e-04  -1.1045092e-04   2.3299489e-05  -2.3035239e-05   0.0000000e+00   0.0000000e+00  -4.2799967e-05  -8.3006119e-05   0.0000000e+00  -1.2929508e-04   0.0000000e+00   0.0000000e+00   0.0000000e+00   0.0000000e+00   0.0000000e+00   0.0000000e+00  -8.2211054e-05  -1.2287602e-04  -1.2738672e-04  -8.0765994e-05  -6.9552359e-05   0.0000000e+00   0.0000000e+00  -6.9822371e-05   1.4881198e-05  -2.2860009e-05  -1.5115326e-04  -1.8944830e-04  -3.9546393e-04  -1.4140627e-04  -1.6370313e-04  -6.2431245e-05  -1.4025924e-04  -2.1224847e-04   0.0000000e+00  -3.5987479e-04  -5.9255296e-05  -3.1369362e-05  -6.5602015e-05  -4.3617626e-05  -8.2539942e-05  -7.2412798e-05   0.0000000e+00   0.0000000e+00  -7.8245385e-05  -3.6753869e-05   0.0000000e+00  -9.8755731e-05   0.0000000e+00   0.0000000e+00   0.0000000e+00   0.0000000e+00   0.0000000e+00   0.0000000e+00  -1.2789459e-04  -8.4567064e-05  -1.1689096e-04  -4.6044944e-05  -2.6153855e-05   0.0000000e+00   0.0000000e+00  -4.7099231e-05  -1.2558849e-04  -1.9595020e-05   1.1382227e-05  -5.8570775e-05   2.5594762e-05  -7.9310030e-05  -1.2772916e-04  -5.4627164e-05  -1.3292828e-05  -2.8060855e-05   0.0000000e+00   2.0439763e-05   1.0659861e-04  -4.2764785e-05  -1.1837638e-04  -1.3982305e-04   1.4119715e-05  -1.4199202e-05   0.0000000e+00   0.0000000e+00  -7.8816350e-05  -7.2070822e-05   0.0000000e+00  -6.7058254e-05   0.0000000e+00   0.0000000e+00   0.0000000e+00   0.0000000e+00   0.0000000e+00   0.0000000e+00  -5.1501661e-05  -4.3975401e-05  -4.3880071e-05  -7.6936594e-05  -3.6178765e-05   0.0000000e+00   0.0000000e+00  -2.6369964e-05  -7.0937619e-05  -7.1977273e-05  -1.7089442e-05  -2.9232324e-04  -9.1637521e-05  -9.7693986e-05  -4.3969025e-05  -3.7771662e-05  -2.9509658e-05  -1.4861618e-04   0.0000000e+00   2.2736466e-05  -1.0550812e-06  -7.3251936e-05  -1.2879305e-04  -1.8791105e-04   2.2239791e-05   9.4089854e-05   0.0000000e+00   0.0000000e+00  -1.1141944e-04  -4.5907100e-05   0.0000000e+00  -1.6367650e-05   0.0000000e+00   0.0000000e+00   0.0000000e+00   0.0000000e+00   0.0000000e+00   0.0000000e+00   7.3353434e-06  -1.6039639e-04   2.8459088e-04  -5.7719142e-05   6.8491004e-05   0.0000000e+00   0.0000000e+00   2.0329663e-04   5.0983378e-04  -3.6221256e-04   4.1504880e-04   2.0354562e-04  -4.4548317e-04   1.0328360e-04   3.5955102e-04   2.0412335e-04   1.3892409e-05   2.5034189e-04   0.0000000e+00   8.8877479e-05
   9.0546110e-05   2.9680301e-05   2.7818695e-05   7.4285818e-05   8.9921460e-05   4.2832333e-05   0.0000000e+00   0.0000000e+00   7.4028927e-07   1.4570887e-05   0.0000000e+00   4.0792408e-05   0.0000000e+00   0.0000000e+00   0.0000000e+00   0.0000000e+00   0.0000000e+00   0.0000000e+00   6.2937897e-05   2.7645294e-05   5.1478997e-05   6.3227631e-06   3.3512111e-05   0.0000000e+00   0.0000000e+00   5.4682074e-05   6.4507321e-05  -2.7400090e-05   7.7571653e-05  -6.8802114e-05   1.3634014e-04   4.7572990e-05   5.9664270e-05   6.3721668e-05   6.0326391e-05   3.4298560e-05   0.0000000e+00   1.2093038e-05  -7.1803122e-04  -1.7257339e-04   4.4345485e-05  -5.6733553e-05   2.2324653e-05  -9.1547932e-05   0.0000000e+00   0.0000000e+00   9.7539857e-05   6.7908028e-05   0.0000000e+00   4.2590588e-05   0.0000000e+00   0.0000000e+00   0.0000000e+00   0.0000000e+00   0.0000000e+00   0.0000000e+00   7.4149342e-06   6.4938683e-05   6.2390188e-05  -2.4561305e-06   2.1978828e-05   0.0000000e+00   0.0000000e+00   8.9783219e-06   5.7623967e-05  -3.4570269e-05   9.3523370e-05   2.9540103e-04   2.8215924e-04  -3.2332801e-05   9.9895832e-05   6.6011661e-05   1.6151665e-04   3.7743290e-04   0.0000000e+00   1.7881137e-05   2.4104699e-04   4.4193811e-04  -3.9751018e-04   1.3833606e-05   6.6738280e-05   2.3942622e-05   0.0000000e+00   0.0000000e+00  -5.3252125e-04  -1.8787586e-04   0.0000000e+00  -1.1554862e-04   0.0000000e+00   0.0000000e+00   0.0000000e+00   0.0000000e+00   0.0000000e+00   0.0000000e+00  -5.2687904e-05  -5.1863305e-05   2.1982952e-04   5.0410277e-05  -1.8701371e-05   0.0000000e+00   0.0000000e+00   1.3022432e-04  -2.6949036e-05  -6.3348484e-05   6.3581877e-05  -3.1698767e-04  -3.4423644e-04   1.9482857e-04  -1.6891143e-04  -2.6479639e-05  -1.1970374e-04  -3.5078796e-04   0.0000000e+00  -4.6108208e-05  -8.7919771e-05  -1.3928167e-05  -2.0551059e-05  -1.9924261e-05  -2.6469639e-06  -2.1109746e-05   0.0000000e+00   0.0000000e+00  -1.7495517e-05  -4.6604580e-06   0.0000000e+00  -1.7952577e-05   0.0000000e+00   0.0000000e+00   0.0000000e+00   0.0000000e+00   0.0000000e+00   0.0000000e+00  -2.7875561e-05  -1.5465384e-05  -2.5394069e-05  -3.7808019e-06  -4.1870337e-06   0.0000000e+00   0.0000000e+00  -3.1298088e-05  -3.6837210e-05  -1.2301170e-05   4.2509930e-05   5.4978805e-05   5.4116320e-05  -2.2620765e-05  -6.9369422e-06  -1.1857733e-05   1.0293466e-05   1.8928793e-05   0.0000000e+00  -1.2178534e-05   7.3853280e-05  -1.1271631e-04  -2.3714060e-04  -2.3911175e-04  -1.5692833e-04  -6.1752919e-05   0.0000000e+00   0.0000000e+00  -2.0708450e-04  -1.3173716e-04   0.0000000e+00  -1.4489882e-04   0.0000000e+00   0.0000000e+00   0.0000000e+00   0.0000000e+00   0.0000000e+00   0.0000000e+00  -1.2938056e-04  -1.6079419e-04  -1.3682260e-04  -1.8953253e-04  -6.3665960e-05   0.0000000e+00   0.0000000e+00  -1.0899513e-04  -1.5402866e-04  -4.5062260e-05  -8.4290001e-06   2.3129520e-04  -3.9234732e-05  -1.2464884e-04  -1.1060489e-04  -3.4488485e-05   1.0657857e-05   3.8489343e-05   0.0000000e+00   9.6936966e-05  -1.5571312e-04  -1.1050640e-04  -9.5140170e-05  -9.5329737e-05  -1.2183079e-04  -9.2609235e-05   0.0000000e+00   0.0000000e+00  -9.0813436e-05  -9.4399929e-05   0.0000000e+00  -1.1260903e-04   0.0000000e+00   0.0000000e+00   0.0000000e+00   0.0000000e+00   0.0000000e+00   0.0000000e+00  -9.8965338e-05  -1.0886601e-04  -1.0120400e-04  -9.8373095e-05  -5.9235487e-05   0.0000000e+00   0.0000000e+00  -1.0884313e-04  -1.0786937e-04  -4.4550379e-05  -7.8079234e-05  -6.2428147e-05  -2.3903603e-04  -9.1952425e-05  -1.1396880e-04  -7.1216022e-05  -7.2342304e-05  -1.3456933e-04   0.0000000e+00  -2.4063836e-05  -2.3945634e-05  -4.3817489e-05   4.2372108e-05   2.6685393e-05   1.2821709e-04   4.4246161e-05   0.0000000e+00   0.0000000e+00   8.3673558e-05   2.8445125e-05   0.0000000e+00   3.3209146e-05   0.0000000e+00   0.0000000e+00   0.0000000e+00   0.0000000e+00   0.0000000e+00   0.0000000e+00   4.0143502e-05   6.2959939e-05   8.8540157e-05   5.8905176e-05   5.5441596e-05   0.0000000e+00   0.0000000e+00   7.5232853e-05   7.9114070e-05   1.1617201e-04  -1.6136742e-05  -1.3026945e-04  -4.3904729e-05   5.8015974e-05   4.3179984e-06   2.2409781e-06   1.3531150e-05  -1.4485166e-04   0.0000000e+00   7.1364172e-06  -6.7891405e-05  -2.0982441e-04  -1.2294701e-04  -1.3693805e-04   4.5701260e-06  -4.0949193e-05   0.0000000e+00   0.0000000e+00  -7.3987166e-05  -1.0755424e-04   0.0000000e+00  -1.5840153e-04   0.0000000e+00   0.0000000e+00   0.0000000e+00   0.0000000e+00   0.0000000e+00   0.0000000e+00  -1.1009507e-04  -1.4623027e-04  -1.5062285e-04  -8.5745950e-05  -8.0620182e-05   0.0000000e+00   0.0000000e+00  -8.2586031e-05  -3.3230729e-06  -2.6951905e-05  -1.5480241e-04  -2.1833350e-04  -4.1089574e-04  -1.6061480e-04  -1.8052308e-04  -8.0017336e-05  -1.4380628e-04  -2.3963177e-04   0.0000000e+00  -3.8322317e-04  -6.7174395e-05  -3.1107628e-05  -7.4702022e-05  -5.6665912e-05  -8.8750723e-05  -8.0905281e-05   0.0000000e+00   0.0000000e+00  -8.9244231e-05  -4.1265100e-05   0.0000000e+00  -1.0806610e-04   0.0000000e+00   0.0000000e+00   0.0000000e+00   0.0000000e+00   0.0000000e+00   0.0000000e+00  -1.3628830e-04  -9.0879366e-05  -1.2870503e-04  -4.6060077e-05  -2.9721892e-05   0.0000000e+00   0.0000000e+00  -5.3914228e-05  -1.2872180e-04  -1.8815524e-05   1.0730904e-05  -5.9327575e-05   2.1691223e-05  -8.6826697e-05  -1.4400383e-04  -6.3529064e-05  -1.3377235e-05  -3.1727309e-05   0.0000000e+00   1.5702004e-05   1.0449001e-04  -4.2385313e-05  -1.0729727e-04  -1.3230082e-04   8.2288700e-06  -1.6330977e-05   0.0000000e+00   0.0000000e+00  -6.9208559e-05  -6.8311364e-05   0.0000000e+00  -6.6963231e-05   0.0000000e+00   0.0000000e+00   0.0000000e+00   0.0000000e+00   0.0000000e+00   0.0000000e+00  -4.8482966e-05  -4.1932268e-05  -4.4861197e-05  -7.6071208e-05  -3.4758902e-05   0.0000000e+00   0.0000000e+00  -2.6842210e-05  -7.3248992e-05  -6.8826179e-05  -1.6631351e-05  -2.9745095e-04  -9.9216168e-05  -9.9003768e-05  -5.1014111e-05  -3.7989975e-05  -3.2209684e-05  -1.5346846e-04   0.0000000e+00   2.8468148e-05  -2.7407621e-05  -9.6904866e-05  -1.5713707e-04  -2.0369762e-04   7.9606207e-06   8.0618894e-05   0.0000000e+00   0.0000000e+00  -1.3584860e-04  -6.4839440e-05   0.0000000e+00  -3.1063284e-05   0.0000000e+00   0.0000000e+00   0.0000000e+00   0.0000000e+00   0.0000000e+00   0.0000000e+00  -2.5227206e-06  -1.7245184e-04   2.6842293e-04  -7.9097601e-05   5.8002533e-05   0.0000000e+00   0.0000000e+00   1.9126279e-04   5.0506281e-04  -3.8295304e-04   3.9145816e-04   1.9746926e-04  -4.7478473e-04   9.2007648e-05   3.5079118e-04   2.0877658e-04  -2.6228833e-06   2.5004016e-04   0.0000000e+00   8.3141893e-05
   9.1188329e-05   2.6858473e-05   1.9886688e-05   6.6946003e-05   9.0216513e-05   4.0935341e-05   0.0000000e+00   0.0000000e+00  -7.3579371e-06   1.0980192e-05   0.0000000e+00   3.5410509e-05   0.0000000e+00   0.0000000e+00   0.0000000e+00   0.0000000e+00   0.0000000e+00   0.0000000e+00   5.8454447e-05   2.0168377e-05   4.6266467e-05  -7.9702942e-07   3.2190767e-05   0.0000000e+00   0.0000000e+00   5.1756798e-05   5.9689030e-05  -3.2175403e-05   8.0103364e-05  -6.7237123e-05   1.3979417e-04   4.1415758e-05   5.4864993e-05   6.1962590e-05   6.0398912e-05   3.5944929e-05   0.0000000e+00   1.2530065e-05  -7.6254426e-04  -1.7098377e-04   5.8488457e-05  -5.1192700e-05   2.2613331e-05  -9.8217408e-05   0.0000000e+00   0.0000000e+00   1.2182918e-04   8.6129706e-05   0.0000000e+00   5.6268266e-05   0.0000000e+00   0.0000000e+00   0.0000000e+00   0.0000000e+00   0.0000000e+00   0.0000000e+00   1.0766678e-05   8.4692582e-05   7.1276997e-05   3.5427074e-06   3.0878133e-05   0.0000000e+00   0.0000000e+00   2.1522121e-05   6.6067433e-05  -1.7964909e-05   1.0627509e-04   3.4033928e-04   3.2217885e-04  -3.2341447e-05   1.1094659e-04   7.0899400e-05   1.8602467e-04   4.1341612e-04   0.0000000e+00   1.3004508e-05   2.5404607e-04   4.8352950e-04  -4.3641597e-04   6.9596887e-06   5.5344421e-05   1.1083524e-05   0.0000000e+00   0.0000000e+00  -5.7713111e-04  -2.1281247e-04   0.0000000e+00  -1.4013055e-04   0.0000000e+00   0.0000000e+00   0.0000000e+00   0.0000000e+00   0.0000000e+00   0.0000000e+00  -6.8348755e-05  -7.8471598e-05   1.9493291e-04   4.8325721e-05  -3.0403326e-05   0.0000000e+00   0.0000000e+00   1.1609243e-04  -6.9091776e-05  -8.7966264e-05   5.6502974e-05  -3.2845313e-04  -2.9656949e-04   1.8452972e-04  -2.0966673e-04  -3.9380341e-05  -1.2800750e-04  -3.5697043e-04   0.0000000e+00  -5.2874231e-05  -9.4682357e-05  -7.9086719e-06  -1.7998060e-05  -1.6368375e-05  -4.7239220e-06  -2.0969595e-05   0.0000000e+00   0.0000000e+00  -1.4892130e-05  -1.6870548e-06   0.0000000e+00  -1.5986326e-05   0.0000000e+00   0.0000000e+00   0.0000000e+00   0.0000000e+00   0.0000000e+00   0.0000000e+00  -2.9830158e-05  -1.0369211e-05  -2.4971097e-05   1.5909016e-06  -3.5228075e-06   0.0000000e+00   0.0000000e+00  -3.2432715e-05  -3.7276762e-05  -8.1084048e-06   4.3915017e-05   6.6479733e-05   6.0806611e-05  -2.0287432e-05  -2.0353205e-06  -1.3519298e-05   1.0659678e-05   2.1552695e-05   0.0000000e+00  -1.1193681e-05   7.7924149e-05  -1.1892390e-04  -2.4203396e-04  -2.5123262e-04  -1.5855544e-04  -6.0029366e-05   0.0000000e+00   0.0000000e+00  -2.0879727e-04  -1.2856623e-04   0.0000000e+00  -1.4353316e-04   0.0000000e+00   0.0000000e+00   0.0000000e+00   0.0000000e+00   0.0000000e+00   0.0000000e+00  -1.3034738e-04  -1.5691168e-04  -1.3018938e-04  -1.9038139e-04  -6.2850454e-05   0.0000000e+00   0.0000000e+00  -1.0770148e-04  -1.5650098e-04  -3.8965126e-05  -3.6527175e-06   2.5009923e-04  -4.1466589e-05  -1.2527951e-04  -1.1034905e-04  -3.6970291e-05   9.3280696e-06   3.6654425e-05   0.0000000e+00   9.9852768e-05  -1.6851288e-04  -1.1138604e-04  -1.0244853e-04  -9.9705320e-05  -1.3657359e-04  -9.8892495e-05   0.0000000e+00   0.0000000e+00  -9.7780546e-05  -1.0055361e-04   0.0000000e+00  -1.2137194e-04   0.0000000e+00   0.0000000e+00   0.0000000e+00   0.0000000e+00   0.0000000e+00   0.0000000e+00  -1.0872475e-04  -1.1544898e-04  -1.0563981e-04  -9.8638353e-05  -6.2681021e-05   0.0000000e+00   0.0000000e+00  -1.1540485e-04  -1.1590675e-04  -4.1962897e-05  -8.6327972e-05  -6.2404367e-05  -2.5851496e-04  -9.6386728e-05  -1.2426135e-04  -7.5744268e-05  -7.7519711e-05  -1.4300980e-04   0.0000000e+00  -2.7043908e-05  -2.5891963e-05  -3.7955082e-05   4.6705467e-05   3.2221514e-05   1.3161839e-04   4.3415215e-05   0.0000000e+00   0.0000000e+00   8.8120670e-05   2.9157500e-05   0.0000000e+00   3.2760993e-05   0.0000000e+00   0.0000000e+00   0.0000000e+00   0.0000000e+00   0.0000000e+00   0.0000000e+00   3.3966399e-05   6.0090122e-05   8.7014498e-05   6.5464744e-05   5.4655072e-05   0.0000000e+00   0.0000000e+00   7.4127246e-05   8.1819824e-05   1.2241172e-04  -1.8216254e-05  -1.2949221e-04  -4.2028025e-05   5.6619641e-05   2.7633825e-06  -1.6513951e-06   1.0493743e-05  -1.5502852e-04   0.0000000e+00   9.4662332e-06  -9.0289411e-05  -2.2430917e-04  -1.4649359e-04  -1.6609341e-04  -1.6648138e-05  -6.0058327e-05   0.0000000e+00   0.0000000e+00  -1.0765530e-04  -1.3413357e-04   0.0000000e+00  -1.8870733e-04   0.0000000e+00   0.0000000e+00   0.0000000e+00   0.0000000e+00   0.0000000e+00   0.0000000e+00  -1.3969836e-04  -1.7072484e-04  -1.7492107e-04  -9.2889573e-05  -9.1831254e-05   0.0000000e+00   0.0000000e+00  -9.5954483e-05  -2.2006808e-05  -3.2698646e-05  -1.5822166e-04  -2.4798029e-04  -4.2477473e-04  -1.7840967e-04  -1.9421529e-04  -9.8372351e-05  -1.4650013e-04  -2.6657725e-04   0.0000000e+00  -4.0583164e-04  -7.3038579e-05  -2.9005912e-05  -8.1199535e-05  -6.7586424e-05  -9.3207672e-05  -8.7804243e-05   0.0000000e+00   0.0000000e+00  -9.7712140e-05  -4.4225108e-05   0.0000000e+00  -1.1522289e-04   0.0000000e+00   0.0000000e+00   0.0000000e+00   0.0000000e+00   0.0000000e+00   0.0000000e+00  -1.4220499e-04  -9.5098878e-05  -1.3797234e-04  -4.3950705e-05  -3.2250074e-05   0.0000000e+00   0.0000000e+00  -5.8721779e-05  -1.2905591e-04  -1.6167674e-05   1.0042120e-05  -5.6984565e-05   1.6312448e-05  -9.2565889e-05  -1.5725562e-04  -7.1807769e-05  -1.2853941e-05  -3.4599891e-05   0.0000000e+00   1.0833875e-05   1.0185019e-04  -4.2122273e-05  -9.4302412e-05  -1.2262760e-04   2.4815693e-06  -1.8052572e-05   0.0000000e+00   0.0000000e+00  -5.8408171e-05  -6.4000168e-05   0.0000000e+00  -6.6241324e-05   0.0000000e+00   0.0000000e+00   0.0000000e+00   0.0000000e+00   0.0000000e+00   0.0000000e+00  -4.4803040e-05  -3.9793499e-05  -4.5367641e-05  -7.4285046e-05  -3.3204958e-05   0.0000000e+00   0.0000000e+00  -2.8009345e-05  -7.4386660e-05  -6.5500725e-05  -1.6861978e-05  -3.0240353e-04  -1.0634353e-04  -9.9515836e-05  -5.9319543e-05  -3.8038294e-05  -3.5691038e-05  -1.5751832e-04   0.0000000e+00   3.4424011e-05  -5.5804090e-05  -1.2427261e-04  -1.8226835e-04  -2.1658545e-04  -1.0789127e-05   6.3752318e-05   0.0000000e+00   0.0000000e+00  -1.5476861e-04  -8.1907628e-05   0.0000000e+00  -4.3488378e-05   0.0000000e+00   0.0000000e+00   0.0000000e+00   0.0000000e+00   0.0000000e+00   0.0000000e+00  -9.4803333e-06  -1.8065996e-04   2.5123415e-04  -1.0085830e-04   4.7943629e-05   0.0000000e+00   0.0000000e+00   1.7941593e-04   4.9574685e-04  -3.9804753e-04   3.6263497e-04   1.9457173e-04  -4.9764262e-04   8.2412744e-05   3.3975443e-04   2.1206018e-04  -1.9817019e-05   2.4997413e-04   0.0000000e+00   7.6915237e-05
   9.0003745e-05   2.2690999e-05   1.0570557e-05   5.7599581e-05   8.9165439e-05   3.8076091e-05   0.0000000e+00   0.0000000e+00  -1.6360859e-05   6.4389273e-06   0.0000000e+00   2.8696666e-05   0.0000000e+00   0.0000000e+00   0.0000000e+00   0.0000000e+00   0.0000000e+00   0.0000000e+00   5.2501144e-05   1.1167673e-05   3.9435149e-05  -8.9734939e-06   2.9932776e-05   0.0000000e+00   0.0000000e+00   4.7150376e-05   5.2937481e-05  -3.7466598e-05   8.1159878e-05  -6.5131635e-05   1.4129887e-04   3.3676296e-05   4.8194527e-05   5.8882607e-05   5.9173240e-05   3.6857029e-05   0.0000000e+00   1.2760880e-05  -7.9605509e-04  -1.6622966e-04   7.1604157e-05  -4.7339344e-05   2.3135075e-05  -1.0377019e-04   0.0000000e+00   0.0000000e+00   1.4501740e-04   1.0564622e-04   0.0000000e+00   7.1127002e-05   0.0000000e+00   0.0000000e+00   0.0000000e+00   0.0000000e+00   0.0000000e+00   0.0000000e+00   1.5817117e-05   1.0456689e-04   7.9527894e-05   9.9564832e-06   4.0665678e-05   0.0000000e+00   0.0000000e+00   3.6527426e-05   7.7104472e-05  -6.2623292e-07   1.2100497e-04   3.8252296e-04   3.6208558e-04  -3.1884074e-05   1.2194378e-04   7.5347949e-05   2.1079169e-04   4.4603029e-04   0.0000000e+00   6.0198197e-06   2.6234409e-04   5.2159522e-04  -4.7457127e-04  -2.5883758e-06   4.1025715e-05  -4.6851280e-06   0.0000000e+00   0.0000000e+00  -6.1670114e-04  -2.3784929e-04   0.0000000e+00  -1.6625420e-04   0.0000000e+00   0.0000000e+00   0.0000000e+00   0.0000000e+00   0.0000000e+00   0.0000000e+00  -8.5880218e-05  -1.0696817e-04   1.6326035e-04   4.3342868e-05  -4.3012764e-05   0.0000000e+00   0.0000000e+00   9.8249599e-05  -1.1384313e-04  -1.1346350e-04   4.7574720e-05  -3.4123599e-04  -2.4749956e-04   1.7129431e-04  -2.4494745e-04  -5.1981634e-05  -1.3645576e-04  -3.6350348e-04   0.0000000e+00  -6.0154978e-05  -9.7187319e-05  -3.1037031e-07  -1.4041207e-05  -1.1997817e-05  -4.2816330e-06  -1.9341417e-05   0.0000000e+00   0.0000000e+00  -1.0974895e-05   2.4331094e-06   0.0000000e+00  -1.2686497e-05   0.0000000e+00   0.0000000e+00   0.0000000e+00   0.0000000e+00   0.0000000e+00   0.0000000e+00  -3.0624954e-05  -4.2319555e-06  -2.3277661e-05   7.6867760e-06  -2.3717014e-06   0.0000000e+00   0.0000000e+00  -3.2229553e-05  -3.6030580e-05  -3.5568240e-06   4.4303968e-05   7.8394916e-05   6.7363180e-05  -1.7180083e-05   4.2095995e-06  -1.4945375e-05   1.0749962e-05   2.4306651e-05   0.0000000e+00  -1.0701361e-05   8.0975112e-05  -1.2220904e-04  -2.4304148e-04  -2.5918915e-04  -1.5895692e-04  -5.7687514e-05   0.0000000e+00   0.0000000e+00  -2.0773888e-04  -1.2290585e-04   0.0000000e+00  -1.4019345e-04   0.0000000e+00   0.0000000e+00   0.0000000e+00   0.0000000e+00   0.0000000e+00   0.0000000e+00  -1.2986047e-04  -1.5053508e-04  -1.2168919e-04  -1.8771921e-04  -6.1299328e-05   0.0000000e+00   0.0000000e+00  -1.0499067e-04  -1.5808708e-04  -3.1671472e-05   2.5273000e-06   2.6646235e-04  -4.0953348e-05  -1.2423944e-04  -1.1019598e-04  -3.8745132e-05   8.8562767e-06   3.4976037e-05   0.0000000e+00   1.0215498e-04  -1.7932449e-04  -1.1110976e-04  -1.0903137e-04  -1.0365037e-04  -1.5013843e-04  -1.0383562e-04   0.0000000e+00   0.0000000e+00  -1.0382622e-04  -1.0570515e-04   0.0000000e+00  -1.2864573e-04   0.0000000e+00   0.0000000e+00   0.0000000e+00   0.0000000e+00   0.0000000e+00   0.0000000e+00  -1.1701552e-04  -1.2100518e-04  -1.0869459e-04  -9.7758947e-05  -6.5303583e-05   0.0000000e+00   0.0000000e+00  -1.2003557e-04  -1.2181232e-04  -3.8455584e-05  -9.4037161e-05  -6.2010298e-05  -2.7702484e-04  -9.9310901e-05  -1.3287328e-04  -7.9154927e-05  -8.2402334e-05  -1.4985948e-04   0.0000000e+00  -3.0511516e-05  -2.7376103e-05  -2.9504931e-05   5.2141122e-05   3.8672999e-05   1.3429151e-04   4.2153839e-05   0.0000000e+00   0.0000000e+00   9.2410390e-05   3.0375377e-05   0.0000000e+00   3.2075618e-05   0.0000000e+00   0.0000000e+00   0.0000000e+00   0.0000000e+00   0.0000000e+00   0.0000000e+00   2.7044777e-05   5.6561914e-05   8.4024923e-05   7.2446918e-05   5.2999554e-05   0.0000000e+00   0.0000000e+00   7.2155272e-05   8.3057942e-05   1.2821163e-04  -2.0144511e-05  -1.2697216e-04  -3.7605488e-05   5.4809710e-05  -7.2505510e-07  -5.9154408e-06   7.0561334e-06  -1.6378374e-04   0.0000000e+00   1.2939819e-05  -1.1365701e-04  -2.4024201e-04  -1.7044617e-04  -1.9741598e-04  -3.9955999e-05  -7.9820161e-05   0.0000000e+00   0.0000000e+00  -1.4268898e-04  -1.6209479e-04   0.0000000e+00  -2.1948731e-04   0.0000000e+00   0.0000000e+00   0.0000000e+00   0.0000000e+00   0.0000000e+00   0.0000000e+00  -1.7036441e-04  -1.9592190e-04  -2.0004283e-04  -1.0248247e-04  -1.0304898e-04   0.0000000e+00   0.0000000e+00  -1.0990788e-04  -4.0558383e-05  -4.0197262e-05  -1.6190879e-04  -2.7784763e-04  -4.3770703e-04  -1.9471725e-04  -2.0438138e-04  -1.1706347e-04  -1.4891632e-04  -2.9281954e-04   0.0000000e+00  -4.2795087e-04  -7.6365948e-05  -2.4760788e-05  -8.4542806e-05  -7.5616087e-05  -9.5454846e-05  -9.2679611e-05   0.0000000e+00   0.0000000e+00  -1.0308115e-04  -4.5352431e-05   0.0000000e+00  -1.1984515e-04   0.0000000e+00   0.0000000e+00   0.0000000e+00   0.0000000e+00   0.0000000e+00   0.0000000e+00  -1.4545158e-04  -9.6992489e-05  -1.4427793e-04  -3.9587198e-05  -3.3599401e-05   0.0000000e+00   0.0000000e+00  -6.1248901e-05  -1.2667650e-04  -1.1632927e-05   9.2920969e-06  -5.1524759e-05   9.6791145e-06  -9.6333543e-05  -1.6687641e-04  -7.9160025e-05  -1.1731243e-05  -3.6507478e-05   0.0000000e+00   6.2653595e-06   9.9102332e-05  -4.2139143e-05  -8.0004699e-05  -1.1132846e-04  -2.5826675e-06  -1.9190712e-05   0.0000000e+00   0.0000000e+00  -4.6899010e-05  -5.9457204e-05   0.0000000e+00  -6.4974428e-05   0.0000000e+00   0.0000000e+00   0.0000000e+00   0.0000000e+00   0.0000000e+00   0.0000000e+00  -4.0565945e-05  -3.7649745e-05  -4.5433422e-05  -7.1744780e-05  -3.1627366e-05   0.0000000e+00   0.0000000e+00  -2.9911023e-05  -7.4176136e-05  -6.2200858e-05  -1.8044221e-05  -3.0756266e-04  -1.1314464e-04  -9.9380661e-05  -6.8520162e-05  -3.8062384e-05  -4.0007593e-05  -1.6105146e-04   0.0000000e+00   4.0384548e-05  -8.4660807e-05  -1.5396657e-04  -2.0235771e-04  -2.2494644e-04  -3.3282003e-05   4.4628587e-05   0.0000000e+00   0.0000000e+00  -1.6618940e-04  -9.5674118e-05   0.0000000e+00  -5.2301655e-05   0.0000000e+00   0.0000000e+00   0.0000000e+00   0.0000000e+00   0.0000000e+00   0.0000000e+00  -1.2468605e-05  -1.8420285e-04   2.3520951e-04  -1.2126386e-04   3.9384268e-05   0.0000000e+00   0.0000000e+00   1.6938203e-04   4.8396165e-04  -4.0721709e-04   3.3120278e-04   1.9476869e-04  -5.1340905e-04   7.5880911e-05   3.2800682e-04   2.1446900e-04  -3.6596479e-05   2.5069290e-04   0.0000000e+00   7.0660602e-05
   8.6946239e-05   1.7153082e-05  -9.1175624e-08   4.6267432e-05   8.6738298e-05   3.4247994e-05   0.0000000e+00   0.0000000e+00  -2.6207701e-05   9.3961506e-07   0.0000000e+00   2.0742204e-05   0.0000000e+00   0.0000000e+00   0.0000000e+00   0.0000000e+00   0.0000000e+00   0.0000000e+00   4.5156822e-05   7.7644468e-07   3.1089625e-05  -1.8080752e-05   2.6759717e-05   0.0000000e+00   0.0000000e+00   4.0894594e-05   4.4382164e-05  -4.3292578e-05   8.0854091e-05  -6.2757317e-05   1.4094331e-04   2.4488209e-05   3.9715884e-05   5.4576656e-05   5.6732750e-05   3.6967237e-05   0.0000000e+00   1.2719095e-05  -8.1803036e-04  -1.5891065e-04   8.2908965e-05  -4.5903596e-05   2.3739797e-05  -1.0829295e-04   0.0000000e+00   0.0000000e+00   1.6594635e-04   1.2595187e-04   0.0000000e+00   8.6720880e-05   0.0000000e+00   0.0000000e+00   0.0000000e+00   0.0000000e+00   0.0000000e+00   0.0000000e+00   2.2601086e-05   1.2390795e-04   8.6950722e-05   1.6885750e-05   5.1156049e-05   0.0000000e+00   0.0000000e+00   5.3683589e-05   9.0670773e-05   1.6742968e-05   1.3777027e-04   4.2070630e-04   4.0134661e-04  -3.1017996e-05   1.3298368e-04   7.9368326e-05   2.3540811e-04   4.7477515e-04   0.0000000e+00  -2.6085037e-06   2.6611263e-04   5.5550891e-04  -5.1098826e-04  -1.4544142e-05   2.4492033e-05  -2.2395289e-05   0.0000000e+00   0.0000000e+00  -6.5022990e-04  -2.6227981e-04   0.0000000e+00  -1.9300213e-04   0.0000000e+00   0.0000000e+00   0.0000000e+00   0.0000000e+00   0.0000000e+00   0.0000000e+00  -1.0490154e-04  -1.3616095e-04   1.2681028e-04   3.5731215e-05  -5.5962618e-05   0.0000000e+00   0.0000000e+00   7.7698467e-05  -1.5895161e-04  -1.3901517e-04   3.7778137e-05  -3.5616870e-04  -1.9916706e-04   1.5613361e-04  -2.7265881e-04  -6.3504379e-05  -1.4469540e-04  -3.7084632e-04   0.0000000e+00  -6.7802446e-05  -9.5099165e-05   8.6542867e-06  -8.7250646e-06  -6.9239843e-06  -1.0454871e-06  -1.6191803e-05   0.0000000e+00   0.0000000e+00  -5.7970650e-06   7.6581875e-06   0.0000000e+00  -8.0623598e-06   0.0000000e+00   0.0000000e+00   0.0000000e+00   0.0000000e+00   0.0000000e+00   0.0000000e+00  -3.0124158e-05   2.7932476e-06  -2.0323922e-05   1.4284955e-05  -7.5970504e-07   0.0000000e+00   0.0000000e+00  -3.0612101e-05  -3.3110797e-05   1.0749316e-06   4.3792120e-05   9.0125834e-05   7.3740504e-05  -1.3356939e-05   1.1673529e-05  -1.6071611e-05   1.0564199e-05   2.7095656e-05   0.0000000e+00  -1.0770015e-05   8.3208198e-05  -1.2237523e-04  -2.4024543e-04  -2.6271952e-04  -1.5842134e-04  -5.4849775e-05   0.0000000e+00   0.0000000e+00  -2.0411584e-04  -1.1510774e-04   0.0000000e+00  -1.3518775e-04   0.0000000e+00   0.0000000e+00   0.0000000e+00   0.0000000e+00   0.0000000e+00   0.0000000e+00  -1.2812874e-04  -1.4205898e-04  -1.1182077e-04  -1.8175554e-04  -5.9198217e-05   0.0000000e+00   0.0000000e+00  -1.0116263e-04  -1.5912287e-04  -2.3289989e-05   9.6483231e-06   2.7998524e-04  -3.7827691e-05  -1.2166745e-04  -1.1057104e-04  -3.9911763e-05   9.1555398e-06   3.3433524e-05   0.0000000e+00   1.0405896e-04  -1.8802526e-04  -1.0990699e-04  -1.1476167e-04  -1.0719193e-04  -1.6238812e-04  -1.0739009e-04   0.0000000e+00   0.0000000e+00  -1.0876788e-04  -1.0975632e-04   0.0000000e+00  -1.3421881e-04   0.0000000e+00   0.0000000e+00   0.0000000e+00   0.0000000e+00   0.0000000e+00   0.0000000e+00  -1.2354538e-04  -1.2542980e-04  -1.1038891e-04  -9.5932537e-05  -6.7068965e-05   0.0000000e+00   0.0000000e+00  -1.2260124e-04  -1.2534954e-04  -3.4189445e-05  -1.0106927e-04  -6.1381952e-05  -2.9435782e-04  -1.0067106e-04  -1.3948017e-04  -8.1322326e-05  -8.6962803e-05  -1.5506752e-04   0.0000000e+00  -3.4463180e-05  -2.8790360e-05  -1.8779089e-05   5.8465064e-05   4.5880518e-05   1.3624604e-04   4.0387514e-05   0.0000000e+00   0.0000000e+00   9.6295094e-05   3.1900419e-05   0.0000000e+00   3.0896543e-05   0.0000000e+00   0.0000000e+00   0.0000000e+00   0.0000000e+00   0.0000000e+00   0.0000000e+00   1.9370233e-05   5.2349723e-05   7.9464318e-05   7.9669721e-05   5.0418208e-05   0.0000000e+00   0.0000000e+00   6.9164180e-05   8.2351135e-05   1.3354140e-04  -2.2114857e-05  -1.2276084e-04  -3.1046558e-05   5.2478826e-05  -6.7163538e-06  -1.0750686e-05   3.1599632e-06  -1.7119145e-04   0.0000000e+00   1.7496975e-05  -1.3762730e-04  -2.5773822e-04  -1.9425290e-04  -2.3030557e-04  -6.4899087e-05  -9.9705359e-05   0.0000000e+00   0.0000000e+00  -1.7791633e-04  -1.9073360e-04   0.0000000e+00  -2.4998574e-04   0.0000000e+00   0.0000000e+00   0.0000000e+00   0.0000000e+00   0.0000000e+00   0.0000000e+00  -2.0138842e-04  -2.2136469e-04  -2.2573810e-04  -1.1467919e-04  -1.1415104e-04   0.0000000e+00   0.0000000e+00  -1.2442973e-04  -5.8450501e-05  -4.9455074e-05  -1.6634316e-04  -3.0748063e-04  -4.5028791e-04  -2.0960845e-04  -2.1087534e-04  -1.3566226e-04  -1.5167580e-04  -3.1820571e-04   0.0000000e+00  -4.4981003e-04  -7.6814961e-05  -1.8163773e-05  -8.4338854e-05  -8.0151712e-05  -9.5123354e-05  -9.5184623e-05   0.0000000e+00   0.0000000e+00  -1.0494178e-04  -4.4460184e-05   0.0000000e+00  -1.2165087e-04   0.0000000e+00   0.0000000e+00   0.0000000e+00   0.0000000e+00   0.0000000e+00   0.0000000e+00  -1.4593658e-04  -9.6428548e-05  -1.4734618e-04  -3.2939251e-05  -3.3695626e-05   0.0000000e+00   0.0000000e+00  -6.1338007e-05  -1.2177395e-04  -5.3159800e-06   8.4614434e-06  -4.3135644e-05   2.1285992e-06  -9.8022866e-05  -1.7245054e-04  -8.5301528e-05  -1.0041952e-05  -3.7314702e-05   0.0000000e+00   2.4089218e-06   9.6615486e-05  -4.2576676e-05  -6.5022798e-05  -9.8960174e-05  -6.4282315e-06  -1.9600536e-05   0.0000000e+00   0.0000000e+00  -3.5163650e-05  -5.4983119e-05   0.0000000e+00  -6.3248621e-05   0.0000000e+00   0.0000000e+00   0.0000000e+00   0.0000000e+00   0.0000000e+00   0.0000000e+00  -3.5868583e-05  -3.5565687e-05  -4.5123996e-05  -6.8648106e-05  -3.0124971e-05   0.0000000e+00   0.0000000e+00  -3.2524820e-05  -7.2491267e-05  -5.9073705e-05  -2.0443550e-05  -3.1312215e-04  -1.1984767e-04  -9.8760824e-05  -7.8144147e-05  -3.8222416e-05  -4.5172525e-05  -1.6439580e-04   0.0000000e+00   4.6064313e-05  -1.1233485e-04  -1.8430130e-04  -2.1582543e-04  -2.2721714e-04  -5.8505740e-05   2.4553131e-05   0.0000000e+00   0.0000000e+00  -1.6856384e-04  -1.0489638e-04   0.0000000e+00  -5.6382488e-05   0.0000000e+00   0.0000000e+00   0.0000000e+00   0.0000000e+00   0.0000000e+00   0.0000000e+00  -1.0707820e-05  -1.8247835e-04   2.2234316e-04  -1.3852814e-04   3.3272247e-05   0.0000000e+00   0.0000000e+00   1.6257604e-04   4.7170053e-04  -4.1041154e-04   2.9971431e-04   1.9748728e-04  -5.2176363e-04   7.3540550e-05   3.1693087e-04   2.1645370e-04  -5.1900190e-05   2.5251221e-04   0.0000000e+00   6.4799207e-05
   8.2041705e-05   1.0287813e-05  -1.2017959e-05   3.3023791e-05   8.2931682e-05   2.9473093e-05   0.0000000e+00   0.0000000e+00  -3.6808453e-05  -5.4837311e-06   0.0000000e+00   1.1680597e-05   0.0000000e+00   0.0000000e+00   0.0000000e+00   0.0000000e+00   0.0000000e+00   0.0000000e+00   3.6539158e-05  -1.0809996e-05   2.1399213e-05  -2.7947753e-05   2.2734076e-05   0.0000000e+00   0.0000000e+00   3.3095804e-05   3.4235593e-05  -4.9633054e-05   7.9370981e-05  -6.0359298e-05   1.3887637e-04   1.4044424e-05   2.9570730e-05   4.9186604e-05   5.3218628e-05   3.6249392e-05   0.0000000e+00   1.2341367e-05  -8.2818217e-04  -1.4974945e-04   9.1678454e-05  -4.7444343e-05   2.4252335e-05  -1.1194381e-04   0.0000000e+00   0.0000000e+00   1.8352912e-04   1.4645024e-04   0.0000000e+00   1.0252694e-04   0.0000000e+00   0.0000000e+00   0.0000000e+00   0.0000000e+00   0.0000000e+00   0.0000000e+00   3.1021619e-05   1.4206863e-04   9.3410900e-05   2.4494320e-05   6.2132496e-05   0.0000000e+00   0.0000000e+00   7.2541028e-05   1.0652336e-04   3.3462319e-05   1.5650820e-04   4.5383790e-04   4.3951176e-04  -2.9806113e-05   1.4420636e-04   8.2987166e-05   2.5945930e-04   4.9940275e-04   0.0000000e+00  -1.2202535e-05   2.6587884e-04   5.8496347e-04  -5.4462202e-04  -2.8457548e-05   6.6618037e-06  -4.0873617e-05   0.0000000e+00   0.0000000e+00  -6.7692025e-04  -2.8531661e-04   0.0000000e+00  -2.1933750e-04   0.0000000e+00   0.0000000e+00   0.0000000e+00   0.0000000e+00   0.0000000e+00   0.0000000e+00  -1.2495764e-04  -1.6478486e-04   8.7918609e-05   2.6033615e-05  -6.8625361e-05   0.0000000e+00   0.0000000e+00   5.5625744e-05  -2.0204831e-04  -1.6373903e-04   2.8184562e-05  -3.7385423e-04  -1.5343417e-04   1.4011972e-04  -2.9123165e-04  -7.3238289e-05  -1.5231018e-04  -3.7932979e-04   0.0000000e+00  -7.5628764e-05  -8.8354311e-05   1.8693694e-05  -2.1754591e-06  -1.2899090e-06   5.0738315e-06  -1.1584974e-05   0.0000000e+00   0.0000000e+00   5.1082336e-07   1.3879276e-05   0.0000000e+00  -2.2003781e-06   0.0000000e+00   0.0000000e+00   0.0000000e+00   0.0000000e+00   0.0000000e+00   0.0000000e+00  -2.8260354e-05   1.0511819e-05  -1.6199721e-05   2.1134138e-05   1.2560377e-06   0.0000000e+00   0.0000000e+00  -2.7590659e-05  -2.8634685e-05   5.4903439e-06   4.2578680e-05   1.0102358e-04   7.9921966e-05  -8.9030012e-06   2.0150890e-05  -1.6837875e-05   1.0131023e-05   2.9820138e-05   0.0000000e+00  -1.1421733e-05   8.4888575e-05  -1.1938161e-04  -2.3387414e-04  -2.6174918e-04  -1.5722539e-04  -5.1625563e-05   0.0000000e+00   0.0000000e+00  -1.9819985e-04  -1.0560907e-04   0.0000000e+00  -1.2885678e-04   0.0000000e+00   0.0000000e+00   0.0000000e+00   0.0000000e+00   0.0000000e+00   0.0000000e+00  -1.2537554e-04  -1.3191861e-04  -1.0109264e-04  -1.7283548e-04  -5.6739292e-05   0.0000000e+00   0.0000000e+00  -9.6535475e-05  -1.5990012e-04  -1.3950680e-05   1.7195365e-05   2.9039945e-04  -3.2348299e-05  -1.1773362e-04  -1.1178924e-04  -4.0615679e-05   1.0072894e-05   3.1989832e-05   0.0000000e+00   1.0580099e-04  -1.9457075e-04  -1.0803083e-04  -1.1953778e-04  -1.1034222e-04  -1.7327152e-04  -1.0957157e-04   0.0000000e+00   0.0000000e+00  -1.1247053e-04  -1.1265044e-04   0.0000000e+00  -1.3795127e-04   0.0000000e+00   0.0000000e+00   0.0000000e+00   0.0000000e+00   0.0000000e+00   0.0000000e+00  -1.2810023e-04  -1.2865066e-04  -1.1080163e-04  -9.3386548e-05  -6.7980402e-05   0.0000000e+00   0.0000000e+00  -1.2306463e-04  -1.2639647e-04  -2.9355487e-05  -1.0731642e-04  -6.0668678e-05  -3.1033780e-04  -1.0048153e-04  -1.4384323e-04  -8.2166839e-05  -9.1178766e-05  -1.5866459e-04   0.0000000e+00  -3.8855903e-05  -3.0544327e-05  -6.2479273e-06   6.5352169e-05   5.3619167e-05   1.3752279e-04   3.8047771e-05   0.0000000e+00   0.0000000e+00   9.9493305e-05   3.3463546e-05   0.0000000e+00   2.8957156e-05   0.0000000e+00   0.0000000e+00   0.0000000e+00   0.0000000e+00   0.0000000e+00   0.0000000e+00   1.0946812e-05   4.7419260e-05   7.3274821e-05   8.6907717e-05   4.6876538e-05   0.0000000e+00   0.0000000e+00   6.5009007e-05   7.9310981e-05   1.3835588e-04  -2.4369298e-05  -1.1700938e-04  -2.2976369e-05   4.9508030e-05  -1.5621768e-05  -1.6361205e-05  -1.2722586e-06  -1.7743925e-04   0.0000000e+00   2.2993883e-05  -1.6186920e-04  -2.7684471e-04  -2.1738283e-04  -2.6411180e-04  -9.0998821e-05  -1.1921747e-04   0.0000000e+00   0.0000000e+00  -2.1216253e-04  -2.1930992e-04   0.0000000e+00  -2.7946559e-04   0.0000000e+00   0.0000000e+00   0.0000000e+00   0.0000000e+00   0.0000000e+00   0.0000000e+00  -2.3203601e-04  -2.4656316e-04  -2.5173382e-04  -1.2949091e-04  -1.2503250e-04   0.0000000e+00   0.0000000e+00  -1.3948933e-04  -7.5259404e-05  -6.0381642e-05  -1.7194428e-04  -3.3654255e-04  -4.6306322e-04  -2.2328135e-04  -2.1378363e-04  -1.5374837e-04  -1.5541111e-04  -3.4267953e-04   0.0000000e+00  -4.7162126e-04  -7.4209115e-05  -9.1231893e-06  -8.0376677e-05  -8.0784735e-05  -9.1964008e-05  -9.5081559e-05   0.0000000e+00   0.0000000e+00  -1.0306465e-04  -4.1463098e-05   0.0000000e+00  -1.2047842e-04   0.0000000e+00   0.0000000e+00   0.0000000e+00   0.0000000e+00   0.0000000e+00   0.0000000e+00  -1.4367478e-04  -9.3377492e-05  -1.4704709e-04  -2.4081566e-05  -3.2535490e-05   0.0000000e+00   0.0000000e+00  -5.8956593e-05  -1.1462788e-04   2.5576198e-06   7.5387083e-06  -3.2203920e-05  -5.9075783e-06  -9.7610401e-05  -1.7378532e-04  -8.9979433e-05  -7.8364155e-06  -3.6936179e-05   0.0000000e+00  -3.6952048e-07   9.4677062e-05  -4.3561212e-05  -4.9950844e-05  -8.6084109e-05  -8.5645979e-06  -1.9175702e-05   0.0000000e+00   0.0000000e+00  -2.3653622e-05  -5.0841370e-05   0.0000000e+00  -6.1154058e-05   0.0000000e+00   0.0000000e+00   0.0000000e+00   0.0000000e+00   0.0000000e+00   0.0000000e+00  -3.0801854e-05  -3.3580840e-05  -4.4528996e-05  -6.5220431e-05  -2.8784853e-05   0.0000000e+00   0.0000000e+00  -3.5776406e-05  -6.9273990e-05  -5.6208678e-05  -2.4309960e-05  -3.1909180e-04  -1.2677067e-04  -9.7830239e-05  -8.7654219e-05  -3.8682773e-05  -5.1164468e-05  -1.6790499e-04   0.0000000e+00   5.1127776e-05  -1.3721995e-04  -2.1342256e-04  -2.2145359e-04  -2.2203787e-04  -8.5221361e-05   4.9139061e-06   0.0000000e+00   0.0000000e+00  -1.6091151e-04  -1.0860244e-04   0.0000000e+00  -5.4922489e-05   0.0000000e+00   0.0000000e+00   0.0000000e+00   0.0000000e+00   0.0000000e+00   0.0000000e+00  -3.7491542e-06  -1.7516091e-04   2.1430264e-04  -1.5095393e-04   3.0374569e-05   0.0000000e+00   0.0000000e+00   1.6010482e-04   4.6075075e-04  -4.0778659e-04   2.7044568e-04   2.0175585e-04  -5.2273143e-04   7.6179688e-05   3.0764798e-04   2.1839021e-04  -6.4786879e-05   2.5548989e-04   0.0000000e+00   5.9704054e-05
   7.5391422e-05   2.2116894e-06  -2.5076625e-05   1.8004470e-05   7.7772841e-05   2.3804982e-05   0.0000000e+00   0.0000000e+00  -4.8037522e-05  -1.2747839e-05   0.0000000e+00   1.6907402e-06   0.0000000e+00   0.0000000e+00   0.0000000e+00   0.0000000e+00   0.0000000e+00   0.0000000e+00   2.6807664e-05  -2.3338389e-05   1.0593694e-05  -3.8364501e-05   1.7958299e-05   0.0000000e+00   0.0000000e+00   2.3937024e-05   2.2787534e-05  -5.6421911e-05   7.6948168e-05  -5.8137006e-05   1.3529606e-04   2.5932267e-06   1.7980346e-05   4.2894421e-05   4.8819568e-05   3.4725197e-05   0.0000000e+00   1.1572446e-05  -8.2651150e-04  -1.3953805e-04   9.7300414e-05  -5.2302182e-05   2.4502673e-05  -1.1492789e-04   0.0000000e+00   0.0000000e+00   1.9683980e-04   1.6649105e-04   0.0000000e+00   1.1797406e-04   0.0000000e+00   0.0000000e+00   0.0000000e+00   0.0000000e+00   0.0000000e+00   0.0000000e+00   4.0842746e-05   1.5844748e-04   9.8838197e-05   3.2988634e-05   7.3352554e-05   0.0000000e+00   0.0000000e+00   9.2530727e-05   1.2426506e-04   4.8908278e-05   1.7702670e-04   4.8111006e-04   4.7621931e-04  -2.8310555e-05   1.5578391e-04   8.6235759e-05   2.8253985e-04   5.1991769e-04   0.0000000e+00  -2.1909268e-05   2.6245314e-04   6.0998639e-04  -5.7443451e-04  -4.3737445e-05  -1.1385947e-05  -5.8838975e-05   0.0000000e+00   0.0000000e+00  -6.9622318e-04  -3.0615012e-04   0.0000000e+00  -2.4418792e-04   0.0000000e+00   0.0000000e+00   0.0000000e+00   0.0000000e+00   0.0000000e+00   0.0000000e+00  -1.4552930e-04  -1.9159149e-04   4.9090622e-05   1.5027568e-05  -8.0347355e-05   0.0000000e+00   0.0000000e+00   3.3306453e-05  -2.4080183e-04  -1.8674808e-04   1.9867058e-05  -3.9459554e-04  -1.1179978e-04   1.2430702e-04  -2.9974319e-04  -8.0600920e-05  -1.5887978e-04  -3.8914023e-04   0.0000000e+00  -8.3413507e-05  -7.7165054e-05   2.9453178e-05   5.4051945e-06   4.7405903e-06   1.3971154e-05  -5.6802468e-06   0.0000000e+00   0.0000000e+00   7.7500309e-06   2.0923986e-05   0.0000000e+00   4.7357361e-06   0.0000000e+00   0.0000000e+00   0.0000000e+00   0.0000000e+00   0.0000000e+00   0.0000000e+00  -2.5043654e-05   1.8692155e-05  -1.1071446e-05   2.7969056e-05   3.5913849e-06   0.0000000e+00   0.0000000e+00  -2.3261203e-05  -2.2818497e-05   9.3975718e-06   4.0931585e-05   1.1043869e-04   8.5919706e-05  -3.9304925e-06   2.9367627e-05  -1.7189536e-05   9.5098371e-06   3.2384644e-05   0.0000000e+00  -1.2630821e-05   8.6307781e-05  -1.1334290e-04  -2.2428113e-04  -2.5639445e-04  -1.5560944e-04  -4.8105801e-05   0.0000000e+00   0.0000000e+00  -1.9031038e-04  -9.4902827e-05   0.0000000e+00  -1.2155155e-04   0.0000000e+00   0.0000000e+00   0.0000000e+00   0.0000000e+00   0.0000000e+00   0.0000000e+00  -1.2182351e-04  -1.2056423e-04  -8.9990915e-05  -1.6141616e-04  -5.4105928e-05   0.0000000e+00   0.0000000e+00  -9.1412484e-05  -1.6063820e-04  -3.8028080e-06   2.4643861e-05   2.9757610e-04  -2.4873644e-05  -1.1262409e-04  -1.1401790e-04  -4.1030211e-05   1.1407610e-05   3.0597273e-05   0.0000000e+00   1.0760548e-04  -1.9898983e-04  -1.0573700e-04  -1.2328958e-04  -1.1309543e-04  -1.8281251e-04  -1.1045335e-04   0.0000000e+00   0.0000000e+00  -1.1485639e-04  -1.1437617e-04   0.0000000e+00  -1.3978148e-04   0.0000000e+00   0.0000000e+00   0.0000000e+00   0.0000000e+00   0.0000000e+00   0.0000000e+00  -1.3055277e-04  -1.3062939e-04  -1.1005884e-04  -9.0362308e-05  -6.8076529e-05   0.0000000e+00   0.0000000e+00  -1.2148942e-04  -1.2495091e-04  -2.4165912e-05  -1.1269795e-04  -6.0026421e-05  -3.2482743e-04  -9.8826170e-05  -1.4582512e-04  -8.1662249e-05  -9.5029953e-05  -1.6075942e-04   0.0000000e+00  -4.3605207e-05  -3.3017012e-05   7.4877990e-06   7.2397280e-05   6.1602976e-05   1.3821156e-04   3.5090722e-05   0.0000000e+00   0.0000000e+00   1.0171210e-04   3.4754652e-05   0.0000000e+00   2.6023948e-05   0.0000000e+00   0.0000000e+00   0.0000000e+00   0.0000000e+00   0.0000000e+00   0.0000000e+00   1.8067783e-06   4.1742890e-05   6.5471269e-05   9.3904109e-05   4.2375834e-05   0.0000000e+00   0.0000000e+00   5.9583683e-05   7.3689720e-05   1.4259389e-04  -2.7179809e-05  -1.0999223e-04  -1.4196073e-05   4.5789679e-05  -2.7645179e-05  -2.2929127e-05  -6.3328634e-06  -1.8281238e-04   0.0000000e+00   2.9218514e-05  -1.8610391e-04  -2.9754030e-04  -2.3936597e-04  -2.9816682e-04  -1.1774761e-04  -1.3791309e-04   0.0000000e+00   0.0000000e+00  -2.4431343e-04  -2.4710370e-04   0.0000000e+00  -3.0723065e-04   0.0000000e+00   0.0000000e+00   0.0000000e+00   0.0000000e+00   0.0000000e+00   0.0000000e+00  -2.6158015e-04  -2.7103270e-04  -2.7772651e-04  -1.4677924e-04  -1.3560449e-04   0.0000000e+00   0.0000000e+00  -1.5502475e-04  -9.0678307e-05  -7.2789070e-05  -1.7905705e-04  -3.6484163e-04  -4.7648946e-04  -2.3600584e-04  -2.1341282e-04  -1.7094806e-04  -1.6070789e-04  -3.6626733e-04   0.0000000e+00  -4.9354417e-04  -6.8548577e-05   2.3235523e-06  -7.2643261e-05  -7.7327513e-05  -8.5874925e-05  -9.2258348e-05   0.0000000e+00   0.0000000e+00  -9.7421734e-05  -3.6397988e-05   0.0000000e+00  -1.1629673e-04   0.0000000e+00   0.0000000e+00   0.0000000e+00   0.0000000e+00   0.0000000e+00   0.0000000e+00  -1.3877790e-04  -8.7913563e-05  -1.4340476e-04  -1.3190454e-05  -3.0183332e-05   0.0000000e+00   0.0000000e+00  -5.4191261e-05  -1.0558650e-04   1.1658709e-05   6.5293257e-06  -1.9292144e-05  -1.3927431e-05  -9.5155545e-05  -1.7091573e-04  -9.2980644e-05  -5.1711995e-06  -3.5343538e-05   0.0000000e+00  -1.7778708e-06   9.3473244e-05  -4.5202618e-05  -3.5321711e-05  -7.3232001e-05  -8.5773281e-06  -1.7863815e-05   0.0000000e+00   0.0000000e+00  -1.2768587e-05  -4.7245255e-05   0.0000000e+00  -5.8779762e-05   0.0000000e+00   0.0000000e+00   0.0000000e+00   0.0000000e+00   0.0000000e+00   0.0000000e+00  -2.5445753e-05  -3.1722024e-05  -4.3765135e-05  -6.1710123e-05  -2.7679680e-05   0.0000000e+00   0.0000000e+00  -3.9551050e-05  -6.4551033e-05  -5.3646033e-05  -2.9865560e-05  -3.2531356e-04  -1.3429603e-04  -9.6762794e-05  -9.6498654e-05  -3.9603288e-05  -5.7926538e-05  -1.7193459e-04   0.0000000e+00   5.5200864e-05  -1.5785904e-04  -2.3944416e-04  -2.1846279e-04  -2.0837375e-04  -1.1203271e-04  -1.2910160e-05   0.0000000e+00   0.0000000e+00  -1.4288270e-04  -1.0616522e-04   0.0000000e+00  -4.7481824e-05   0.0000000e+00   0.0000000e+00   0.0000000e+00   0.0000000e+00   0.0000000e+00   0.0000000e+00   8.4794711e-06  -1.6221935e-04   2.1232514e-04  -1.5705961e-04   3.1230400e-05   0.0000000e+00   0.0000000e+00   1.6270050e-04   4.5258564e-04  -3.9969165e-04   2.4525691e-04   2.0633486e-04  -5.1670007e-04   8.4200445e-05   3.0095872e-04   2.2054944e-04  -7.4488633e-05   2.5943853e-04   0.0000000e+00   5.5678070e-05
   6.7166559e-05  -6.8888793e-06  -3.9076116e-05   1.4178267e-06   7.1323808e-05   1.7331431e-05   0.0000000e+00   0.0000000e+00  -5.9727858e-05  -2.0720735e-05   0.0000000e+00  -9.0084937e-06   0.0000000e+00   0.0000000e+00   0.0000000e+00   0.0000000e+00   0.0000000e+00   0.0000000e+00   1.6161812e-05  -3.6501173e-05  -1.0416464e-06  -4.9084422e-05   1.2571692e-05   0.0000000e+00   0.0000000e+00   1.3672139e-05   1.0394576e-05  -6.3543415e-05   7.3853032e-05  -5.6226861e-05   1.3043195e-04  -9.5698638e-06   5.2424430e-06   3.5913725e-05   4.3758982e-05   3.2463090e-05   0.0000000e+00   1.0370200e-05  -8.1336953e-04  -1.2909384e-04   9.9315495e-05  -6.0569711e-05   2.4348563e-05  -1.1747417e-04   0.0000000e+00   0.0000000e+00   2.0518343e-04   1.8540195e-04   0.0000000e+00   1.3247636e-04   0.0000000e+00   0.0000000e+00   0.0000000e+00   0.0000000e+00   0.0000000e+00   0.0000000e+00   5.1707665e-05   1.7251234e-04   1.0323173e-04   4.2595992e-05   8.4563270e-05   0.0000000e+00   0.0000000e+00   1.1300422e-04   1.4338580e-04   6.2538067e-05   1.9899160e-04   5.0200424e-04   5.1119061e-04  -2.6582604e-05   1.6790279e-04   8.9152627e-05   3.0425399e-04   5.3655715e-04   0.0000000e+00  -3.0758585e-05   2.5687816e-04   6.3092651e-04  -5.9947949e-04  -5.9681134e-05  -2.8482818e-05  -7.4996373e-05   0.0000000e+00   0.0000000e+00  -7.0787628e-04  -3.2398192e-04   0.0000000e+00  -2.6651146e-04   0.0000000e+00   0.0000000e+00   0.0000000e+00   0.0000000e+00   0.0000000e+00   0.0000000e+00  -1.6608488e-04  -2.1544456e-04   1.2809656e-05   3.6783182e-06  -9.0493623e-05   0.0000000e+00   0.0000000e+00   1.2029312e-05  -2.7308511e-04  -2.0719294e-04   1.3780967e-05  -4.1833536e-04  -7.5350198e-05   1.0965482e-04  -2.9799940e-04  -8.5184857e-05  -1.6401023e-04  -4.0033333e-04   0.0000000e+00  -9.0929288e-05  -6.2009642e-05   4.0536818e-05   1.3747268e-05   1.0984087e-05   2.5354015e-05   1.2774814e-06   0.0000000e+00   0.0000000e+00   1.5658811e-05   2.8567024e-05   0.0000000e+00   1.2513781e-05   0.0000000e+00   0.0000000e+00   0.0000000e+00   0.0000000e+00   0.0000000e+00   0.0000000e+00  -2.0563119e-05   2.7079839e-05  -5.1695725e-06   3.4525265e-05   6.1421516e-06   0.0000000e+00   0.0000000e+00  -1.7802653e-05  -1.5961740e-05   1.2528245e-05   3.9159406e-05   1.1776886e-04   9.1763384e-05   1.4268552e-06   3.8996022e-05  -1.7081563e-05   8.7879309e-06   3.4707866e-05   0.0000000e+00  -1.4328081e-05   8.7750934e-05  -1.0452553e-04  -2.1192995e-04  -2.4695525e-04  -1.5376593e-04  -4.4360936e-05   0.0000000e+00   0.0000000e+00  -1.8079580e-04  -8.3510542e-05   0.0000000e+00  -1.1360770e-04   0.0000000e+00   0.0000000e+00   0.0000000e+00   0.0000000e+00   0.0000000e+00   0.0000000e+00  -1.1767537e-04  -1.0842796e-04  -7.8950317e-05  -1.4803889e-04  -5.1461358e-05   0.0000000e+00   0.0000000e+00  -8.6065579e-05  -1.6145840e-04   6.9860923e-06   3.1500970e-05   3.0153298e-04  -1.5831087e-05  -1.0652968e-04  -1.1726218e-04  -4.1338678e-05   1.2936144e-05   2.9211832e-05   0.0000000e+00   1.0967395e-04  -2.0137704e-04  -1.0326961e-04  -1.2597865e-04  -1.1542352e-04  -1.9109350e-04  -1.1015809e-04   0.0000000e+00   0.0000000e+00  -1.1591056e-04  -1.1496865e-04   0.0000000e+00  -1.3972780e-04   0.0000000e+00   0.0000000e+00   0.0000000e+00   0.0000000e+00   0.0000000e+00   0.0000000e+00  -1.3086954e-04  -1.3136515e-04  -1.0832432e-04  -8.7098806e-05  -6.7427646e-05   0.0000000e+00   0.0000000e+00  -1.1803324e-04  -1.2112935e-04  -1.8842303e-05  -1.1716181e-04  -5.9616002e-05  -3.3772989e-04  -9.5848840e-05  -1.4539522e-04  -7.9832361e-05  -9.8494953e-05  -1.6152433e-04   0.0000000e+00  -4.8585207e-05  -3.6500295e-05   2.1732478e-05   7.9146938e-05   6.9503249e-05   1.3845510e-04   3.1507096e-05   0.0000000e+00   0.0000000e+00   1.0267502e-04   3.5443204e-05   0.0000000e+00   2.1924559e-05   0.0000000e+00   0.0000000e+00   0.0000000e+00   0.0000000e+00   0.0000000e+00   0.0000000e+00  -7.9697017e-06   3.5317303e-05   5.6155092e-05   1.0038827e-04   3.6962344e-05   0.0000000e+00   0.0000000e+00   5.2839722e-05   6.5421804e-05   1.4617268e-04  -3.0809575e-05  -1.0210399e-04  -5.6184979e-06   4.1246720e-05  -4.2746477e-05  -3.0584976e-05  -1.2116592e-05  -1.8765838e-04   0.0000000e+00   3.5894423e-05  -2.1010439e-04  -3.1974754e-04  -2.5980682e-04  -3.3182751e-04  -1.4465298e-04  -1.5543338e-04   0.0000000e+00   0.0000000e+00  -2.7339165e-04  -2.7346333e-04   0.0000000e+00  -3.3265846e-04   0.0000000e+00   0.0000000e+00   0.0000000e+00   0.0000000e+00   0.0000000e+00   0.0000000e+00  -2.8931939e-04  -2.9429077e-04  -3.0338657e-04  -1.6628139e-04  -1.4578184e-04   0.0000000e+00   0.0000000e+00  -1.7094979e-04  -1.0452121e-04  -8.6402067e-05  -1.8791289e-04  -3.9232543e-04  -4.9091153e-04  -2.4809348e-04  -2.1025244e-04  -1.8692531e-04  -1.6805695e-04  -3.8906280e-04   0.0000000e+00  -5.1567784e-04  -6.0009548e-05   1.6004636e-05  -6.1322449e-05  -6.9824744e-05  -7.6914161e-05  -8.6736932e-05   0.0000000e+00   0.0000000e+00  -8.8184439e-05  -2.9411360e-05   0.0000000e+00  -1.0920680e-04   0.0000000e+00   0.0000000e+00   0.0000000e+00   0.0000000e+00   0.0000000e+00   0.0000000e+00  -1.3145078e-04  -8.0205889e-05  -1.3659747e-04  -5.3520683e-07  -2.6764141e-05   0.0000000e+00   0.0000000e+00  -4.7237531e-05  -9.5044909e-05   2.1572645e-05   5.4592445e-06  -5.0972944e-06  -2.1394098e-05  -9.0787331e-05  -1.6410922e-04  -9.4145914e-05  -2.1066344e-06  -3.2568708e-05   0.0000000e+00  -1.6222066e-06   9.3086408e-05  -4.7605862e-05  -2.1584293e-05  -6.0885647e-05  -6.1652838e-06  -1.5665652e-05   0.0000000e+00   0.0000000e+00  -2.8394386e-06  -4.4350397e-05   0.0000000e+00  -5.6213118e-05   0.0000000e+00   0.0000000e+00   0.0000000e+00   0.0000000e+00   0.0000000e+00   0.0000000e+00  -1.9877421e-05  -3.0005040e-05  -4.2962240e-05  -5.8372770e-05  -2.6869779e-05   0.0000000e+00   0.0000000e+00  -4.3705726e-05  -5.8437740e-05  -5.1374069e-05  -3.7287153e-05  -3.3149653e-04  -1.4283240e-04  -9.5726609e-05  -1.0416772e-04  -4.1123977e-05  -6.5364124e-05  -1.7682183e-04   0.0000000e+00   5.7899894e-05  -1.7303122e-04  -2.6058742e-04  -2.0656125e-04  -1.8562714e-04  -1.3747713e-04  -2.7636086e-05   0.0000000e+00   0.0000000e+00  -1.1479651e-04  -9.7342614e-05   0.0000000e+00  -3.4023278e-05   0.0000000e+00   0.0000000e+00   0.0000000e+00   0.0000000e+00   0.0000000e+00   0.0000000e+00   2.5680330e-05  -1.4393433e-04   2.1714468e-04  -1.5569743e-04   3.6118599e-05   0.0000000e+00   0.0000000e+00   1.7069325e-04   4.4830770e-04  -3.8663634e-04   2.2547220e-04   2.0985285e-04  -5.0438188e-04   9.7594937e-05   2.9732650e-04   2.2308575e-04  -8.0479937e-05   2.6395172e-04   0.0000000e+00   5.2942981e-05
   5.7605602e-05  -1.6760855e-05  -5.3764405e-05  -1.6451185e-05   6.3685050e-05   1.0175909e-05   0.0000000e+00   0.0000000e+00  -7.1670892e-05  -2.9221171e-05   0.0000000e+00  -2.0161770e-05   0.0000000e+00   0.0000000e+00   0.0000000e+00   0.0000000e+00   0.0000000e+00   0.0000000e+00   4.8389547e-06  -4.9948667e-05  -1.3177286e-05  -5.9836230e-05   6.7455705e-06   0.0000000e+00   0.0000000e+00   2.6164304e-06  -2.5337253e-06  -7.0835376e-05   7.0362189e-05  -5.4691583e-05   1.2452982e-04  -2.2111086e-05  -8.2767785e-06   2.8479945e-05   3.8280334e-05   2.9574803e-05   0.0000000e+00   8.7118475e-06  -7.8950848e-04  -1.1920841e-04   9.7460951e-05  -7.2077099e-05   2.3696871e-05  -1.1981125e-04   0.0000000e+00   0.0000000e+00   2.0815620e-04   2.0251964e-04   0.0000000e+00   1.4547624e-04   0.0000000e+00   0.0000000e+00   0.0000000e+00   0.0000000e+00   0.0000000e+00   0.0000000e+00   6.3153615e-05   1.8383920e-04   1.0665546e-04   5.3535470e-05   9.5509714e-05   0.0000000e+00   0.0000000e+00   1.3326455e-04   1.6330122e-04   7.3917225e-05   2.2193574e-04   5.1631269e-04   5.4421519e-04  -2.4657261e-05   1.8074509e-04   9.1779205e-05   3.2423082e-04   5.4975165e-04   0.0000000e+00  -3.7736246e-05   2.5033680e-04   6.4841165e-04  -6.1895091e-04  -7.5543988e-05  -4.3421930e-05  -8.8143942e-05   0.0000000e+00   0.0000000e+00  -7.1191948e-04  -3.3807880e-04   0.0000000e+00  -2.8538131e-04   0.0000000e+00   0.0000000e+00   0.0000000e+00   0.0000000e+00   0.0000000e+00   0.0000000e+00  -1.8608766e-04  -2.3539082e-04  -1.8625348e-05  -6.9362598e-06  -9.8487598e-05   0.0000000e+00   0.0000000e+00  -6.9878151e-06  -2.9711050e-04  -2.2432023e-04   1.0693109e-05  -4.4465756e-04  -4.4731514e-05   9.6952785e-05  -2.8653920e-04  -8.6806339e-05  -1.6738712e-04  -4.1286014e-04   0.0000000e+00  -9.7935460e-05  -4.3603028e-05   5.1529083e-05   2.2527669e-05   1.7253856e-05   3.8758858e-05   8.9728249e-06   0.0000000e+00   0.0000000e+00   2.3929707e-05   3.6541389e-05   0.0000000e+00   2.0842116e-05   0.0000000e+00   0.0000000e+00   0.0000000e+00   0.0000000e+00   0.0000000e+00   0.0000000e+00  -1.4982726e-05   3.5407725e-05   1.2285350e-06   4.0556090e-05   8.7911095e-06   0.0000000e+00   0.0000000e+00  -1.1464490e-05  -8.4281245e-06   1.4659431e-05   3.7588701e-05   1.2251625e-04   9.7494997e-05   7.0184864e-06   4.8675036e-05  -1.6481876e-05   8.0759665e-06   3.6732851e-05   0.0000000e+00  -1.6406505e-05   8.9460042e-05  -9.3337083e-05  -1.9736228e-04  -2.3389625e-04  -1.5182925e-04  -4.0439208e-05   0.0000000e+00   0.0000000e+00  -1.7001272e-04  -7.1945825e-05   0.0000000e+00  -1.0533099e-04   0.0000000e+00   0.0000000e+00   0.0000000e+00   0.0000000e+00   0.0000000e+00   0.0000000e+00  -1.1310409e-04  -9.5905344e-05  -6.8331544e-05  -1.3329880e-04  -4.8937138e-05   0.0000000e+00   0.0000000e+00  -8.0712601e-05  -1.6237336e-04   1.8233553e-05   3.7338976e-05   3.0242498e-04  -5.6906198e-06  -9.9635662e-05  -1.2136169e-04  -4.1711048e-05   1.4429941e-05   2.7791372e-05   0.0000000e+00   1.1216226e-04  -2.0188190e-04  -1.0084437e-04  -1.2760075e-04  -1.1727923e-04  -1.9823730e-04  -1.0884781e-04   0.0000000e+00   0.0000000e+00  -1.1568179e-04  -1.1450459e-04   0.0000000e+00  -1.3788881e-04   0.0000000e+00   0.0000000e+00   0.0000000e+00   0.0000000e+00   0.0000000e+00   0.0000000e+00  -1.2911062e-04  -1.3089314e-04  -1.0578338e-04  -8.3818187e-05  -6.6129610e-05   0.0000000e+00   0.0000000e+00  -1.1293500e-04  -1.1515780e-04  -1.3602627e-05  -1.2068067e-04  -5.9597190e-05  -3.4898680e-04  -9.1745754e-05  -1.4263082e-04  -7.6753025e-05  -1.0155278e-04  -1.6118252e-04   0.0000000e+00  -5.3634352e-05  -4.1161877e-05   3.5736103e-05   8.5138287e-05   7.6967218e-05   1.3845665e-04   2.7336348e-05   0.0000000e+00   0.0000000e+00   1.0215206e-04   3.5221204e-05   0.0000000e+00   1.6575366e-05   0.0000000e+00   0.0000000e+00   0.0000000e+00   0.0000000e+00   0.0000000e+00   0.0000000e+00  -1.8241146e-05   2.8175198e-05   4.5520911e-05   1.0609317e-04   3.0728549e-05   0.0000000e+00   0.0000000e+00   4.4809633e-05   5.4645437e-05   1.4899560e-04  -3.5485954e-05  -9.3852969e-05   1.7902987e-06   3.5846721e-05  -6.0625024e-05  -3.9385805e-05  -1.8704628e-05  -1.9235513e-04   0.0000000e+00   4.2707031e-05  -2.3369747e-04  -3.4334278e-04  -2.7841025e-04  -3.6450130e-04  -1.7123856e-04  -1.7150269e-04   0.0000000e+00   0.0000000e+00  -2.9859009e-04  -2.9782091e-04   0.0000000e+00  -3.5522647e-04   0.0000000e+00   0.0000000e+00   0.0000000e+00   0.0000000e+00   0.0000000e+00   0.0000000e+00  -3.1460736e-04  -3.1587353e-04  -3.2834561e-04  -1.8761027e-04  -1.5548779e-04   0.0000000e+00   0.0000000e+00  -1.8712750e-04  -1.1670870e-04  -1.0087558e-04  -1.9863115e-04  -4.1908686e-04  -5.0654011e-04  -2.5984199e-04  -2.0491273e-04  -2.0140691e-04  -1.7780774e-04  -4.1119853e-04   0.0000000e+00  -5.3804409e-04  -4.8930701e-05   3.1629747e-05  -4.6788617e-05  -5.8543248e-05  -6.5298068e-05  -7.8675249e-05   0.0000000e+00   0.0000000e+00  -7.5716866e-05  -2.0758298e-05   0.0000000e+00  -9.9442187e-05   0.0000000e+00   0.0000000e+00   0.0000000e+00   0.0000000e+00   0.0000000e+00   0.0000000e+00  -1.2198185e-04  -7.0513671e-05  -1.2694214e-04   1.3534741e-05  -2.2456563e-05   0.0000000e+00   0.0000000e+00  -3.8388809e-05  -8.3425940e-05   3.1831961e-05   4.3792306e-06   9.5857746e-06  -2.7769910e-05  -8.4699363e-05  -1.5384441e-04  -9.3377999e-05   1.3021432e-06  -2.8702131e-05   0.0000000e+00   1.7524489e-07   9.3493429e-05  -5.0867848e-05  -9.0821518e-06  -4.9451396e-05  -1.1638348e-06  -1.2642903e-05   0.0000000e+00   0.0000000e+00   5.8900280e-06  -4.2255572e-05   0.0000000e+00  -5.3543376e-05   0.0000000e+00   0.0000000e+00   0.0000000e+00   0.0000000e+00   0.0000000e+00   0.0000000e+00  -1.4174143e-05  -2.8445290e-05  -4.2260073e-05  -5.5462539e-05  -2.6402642e-05   0.0000000e+00   0.0000000e+00  -4.8092205e-05  -5.1138899e-05  -4.9348815e-05  -4.6690783e-05  -3.3726211e-04  -1.5277844e-04  -9.4873268e-05  -1.1023497e-04  -4.3354829e-05  -7.3350425e-05  -1.8285816e-04   0.0000000e+00   5.8861941e-05  -1.8182990e-04  -2.7531901e-04  -1.8596409e-04  -1.5369700e-04  -1.6010462e-04  -3.8163159e-05   0.0000000e+00   0.0000000e+00  -7.7613962e-05  -8.2272194e-05   0.0000000e+00  -1.4900759e-05   0.0000000e+00   0.0000000e+00   0.0000000e+00   0.0000000e+00   0.0000000e+00   0.0000000e+00   4.7205976e-05  -1.2087209e-04   2.2896068e-04  -1.4613294e-04   4.5051197e-05   0.0000000e+00   0.0000000e+00   1.8401061e-04   4.4859910e-04  -3.6925708e-04   2.1182513e-04   2.1097740e-04  -4.8678617e-04   1.1594925e-04   2.9688259e-04   2.2604001e-04  -8.2504871e-05   2.6845389e-04   0.0000000e+00   5.1632985e-05
   4.6999665e-05  -2.7099292e-05  -6.8830367e-05  -3.5243055e-05   5.4994489e-05   2.4952005e-06   0.0000000e+00   0.0000000e+00  -8.3618387e-05  -3.8025818e-05   0.0000000e+00  -3.1484024e-05   0.0000000e+00   0.0000000e+00   0.0000000e+00   0.0000000e+00   0.0000000e+00   0.0000000e+00  -6.8909288e-06  -6.3301463e-05  -2.5450846e-05  -7.0330294e-05   6.7466313e-07   0.0000000e+00   0.0000000e+00  -8.8657484e-06  -1.5554448e-05  -7.8093116e-05   6.6737574e-05  -5.3517341e-05   1.1783565e-04  -3.4673112e-05  -2.2157843e-05   2.0839161e-05   3.2631546e-05   2.6210113e-05   0.0000000e+00   6.5956892e-06  -7.5610422e-04  -1.1060785e-04   9.1695470e-05  -8.6399173e-05   2.2525595e-05  -1.2213899e-04   0.0000000e+00   0.0000000e+00   2.0568414e-04   2.1723996e-04   0.0000000e+00   1.5648079e-04   0.0000000e+00   0.0000000e+00   0.0000000e+00   0.0000000e+00   0.0000000e+00   0.0000000e+00   7.4648822e-05   1.9213058e-04   1.0923336e-04   6.5982708e-05   1.0595139e-04   0.0000000e+00   0.0000000e+00   1.5261370e-04   1.8340541e-04   8.2731049e-05   2.4526734e-04   5.2413805e-04   5.7513208e-04  -2.2548956e-05   1.9446699e-04   9.4159245e-05   3.4213023e-04   5.6007203e-04   0.0000000e+00  -4.1870990e-05   2.4403624e-04   6.6329148e-04  -6.3225571e-04  -9.0576451e-05  -5.5054964e-05  -9.7263947e-05   0.0000000e+00   0.0000000e+00  -7.0870437e-04  -3.4781686e-04   0.0000000e+00  -3.0003930e-04   0.0000000e+00   0.0000000e+00   0.0000000e+00   0.0000000e+00   0.0000000e+00   0.0000000e+00  -2.0504162e-04  -2.5072752e-04  -4.3282943e-05  -1.5680397e-05  -1.0385349e-04   0.0000000e+00   0.0000000e+00  -2.2686625e-05  -3.1156757e-04  -2.3750266e-04   1.1101144e-05  -4.7279608e-04  -2.0149080e-05   8.6781564e-05  -2.6660359e-04  -8.5522691e-05  -1.6880555e-04  -4.2657346e-04   0.0000000e+00  -1.0421739e-04  -2.2861048e-05   6.2020352e-05   3.1388963e-05   2.3362788e-05   5.3585356e-05   1.7039885e-05   0.0000000e+00   0.0000000e+00   3.2227719e-05   4.4553688e-05   0.0000000e+00   2.9388221e-05   0.0000000e+00   0.0000000e+00   0.0000000e+00   0.0000000e+00   0.0000000e+00   0.0000000e+00  -8.5330247e-06   4.3411844e-05   7.8181305e-06   4.5848123e-05   1.1416477e-05   0.0000000e+00   0.0000000e+00  -4.5508371e-06  -6.1984608e-07   1.5628008e-05   3.6534263e-05   1.2433169e-04   1.0316050e-04   1.2682540e-05   5.8035209e-05  -1.5374372e-05   7.5020879e-06   3.8435262e-05   0.0000000e+00  -1.8730250e-05   9.1607494e-05  -8.0303349e-05  -1.8117297e-04  -2.1782178e-04  -1.4986983e-04  -3.6368971e-05   0.0000000e+00   0.0000000e+00  -1.5830729e-04  -6.0690070e-05   0.0000000e+00  -9.6973818e-05   0.0000000e+00   0.0000000e+00   0.0000000e+00   0.0000000e+00   0.0000000e+00   0.0000000e+00  -1.0823960e-04  -8.3334905e-05  -5.8402998e-05  -1.1781266e-04  -4.6627382e-05   0.0000000e+00   0.0000000e+00  -7.5508946e-05  -1.6328521e-04   2.9743418e-05   4.1825391e-05   3.0052921e-04   5.0594326e-06  -9.2110210e-05  -1.2600223e-04  -4.2287782e-05   1.5679162e-05   2.6310626e-05   0.0000000e+00   1.1516746e-04  -2.0070186e-04  -9.8637978e-05  -1.2818221e-04  -1.1859657e-04  -2.0438780e-04  -1.0671189e-04   0.0000000e+00   0.0000000e+00  -1.1427839e-04  -1.1310128e-04   0.0000000e+00  -1.3443532e-04   0.0000000e+00   0.0000000e+00   0.0000000e+00   0.0000000e+00   0.0000000e+00   0.0000000e+00  -1.2542448e-04  -1.2928072e-04  -1.0263006e-04  -8.0712662e-05  -6.4295963e-05   0.0000000e+00   0.0000000e+00  -1.0650300e-04  -1.0735712e-04  -8.6488133e-06  -1.2325241e-04  -6.0123267e-05  -3.5857243e-04  -8.6750410e-05  -1.3771087e-04  -7.2544669e-05  -1.0417956e-04  -1.5998737e-04   0.0000000e+00  -5.8560312e-05  -4.7012538e-05   4.8749138e-05   8.9937211e-05   8.3651680e-05   1.3847104e-04   2.2671152e-05   0.0000000e+00   0.0000000e+00   9.9983629e-05   3.3824483e-05   0.0000000e+00   9.9990471e-06   0.0000000e+00   0.0000000e+00   0.0000000e+00   0.0000000e+00   0.0000000e+00   0.0000000e+00  -2.8799539e-05   2.0397484e-05   3.3857930e-05   1.1077167e-04   2.3819337e-05   0.0000000e+00   0.0000000e+00   3.5617724e-05   4.1711616e-05   1.5095445e-04  -4.1364203e-05  -8.5833621e-05   7.0959745e-06   2.9616341e-05  -8.0732958e-05  -4.9296784e-05  -2.6152096e-05  -1.9727397e-04   0.0000000e+00   4.9320248e-05  -2.5674303e-04  -3.6815536e-04  -2.9498465e-04  -3.9567418e-04  -1.9708310e-04  -1.8595607e-04   0.0000000e+00   0.0000000e+00  -3.1932514e-04  -3.1974590e-04   0.0000000e+00  -3.7454557e-04   0.0000000e+00   0.0000000e+00   0.0000000e+00   0.0000000e+00   0.0000000e+00   0.0000000e+00  -3.3688736e-04  -3.3534795e-04  -3.5220138e-04  -2.1028134e-04  -1.6464616e-04   0.0000000e+00   0.0000000e+00  -2.0335847e-04  -1.2725316e-04  -1.1581096e-04  -2.1120501e-04  -4.4531151e-04  -5.2345415e-04  -2.7149045e-04  -1.9807397e-04  -2.1418640e-04  -1.9014451e-04  -4.3282536e-04   0.0000000e+00  -5.6058461e-04  -3.5786225e-05   4.8802396e-05  -2.9581789e-05  -4.3955317e-05  -5.1396684e-05  -6.8358932e-05   0.0000000e+00   0.0000000e+00  -6.0558724e-05  -1.0786276e-05   0.0000000e+00  -8.7352816e-05   0.0000000e+00   0.0000000e+00   0.0000000e+00   0.0000000e+00   0.0000000e+00   0.0000000e+00  -1.1072804e-04  -5.9163528e-05  -1.1487736e-04   2.8614344e-05  -1.7478119e-05   0.0000000e+00   0.0000000e+00  -2.8012115e-05  -7.1160694e-05   4.1940569e-05   3.3627507e-06   2.3922460e-05  -3.2557694e-05  -7.7135182e-05  -1.4078348e-04  -9.0646165e-05   5.0103160e-06  -2.3898324e-05   0.0000000e+00   3.5742454e-06   9.4573025e-05  -5.5085306e-05   1.9589429e-06  -3.9253224e-05   6.4353732e-06  -8.9133419e-06   0.0000000e+00   0.0000000e+00   1.3270195e-05  -4.0991559e-05   0.0000000e+00  -5.0853910e-05   0.0000000e+00   0.0000000e+00   0.0000000e+00   0.0000000e+00   0.0000000e+00   0.0000000e+00  -8.4154382e-06  -2.7060509e-05  -4.1794079e-05  -5.3219443e-05  -2.6312767e-05   0.0000000e+00   0.0000000e+00  -5.2563019e-05  -4.2939132e-05  -4.7494904e-05  -5.8118968e-05  -3.4218955e-04  -1.6447332e-04  -9.4330346e-05  -1.1440150e-04  -4.6362522e-05  -8.1726493e-05  -1.9026952e-04   0.0000000e+00   5.7778161e-05  -1.8370426e-04  -2.8245177e-04  -1.5736650e-04  -1.1302045e-04  -1.7857513e-04  -4.3640436e-05   0.0000000e+00   0.0000000e+00  -3.2878399e-05  -6.1468026e-05   0.0000000e+00   9.1619462e-06   0.0000000e+00   0.0000000e+00   0.0000000e+00   0.0000000e+00   0.0000000e+00   0.0000000e+00   7.2114726e-05  -9.3860901e-05   2.4744048e-04  -1.2811740e-04   5.7783817e-05   0.0000000e+00   0.0000000e+00   2.0219918e-04   4.5372606e-04  -3.4828819e-04   2.0446215e-04   2.0854961e-04  -4.6513482e-04   1.3849399e-04   2.9946774e-04   2.2934153e-04  -8.0587665e-05   2.7227371e-04   0.0000000e+00   5.1795747e-05
   3.5681089e-05  -3.7560490e-05  -8.3911500e-05  -5.4527989e-05   4.5427544e-05  -5.5236562e-06   0.0000000e+00   0.0000000e+00  -9.5288242e-05  -4.6876213e-05   0.0000000e+00  -4.2670101e-05   0.0000000e+00   0.0000000e+00   0.0000000e+00   0.0000000e+00   0.0000000e+00   0.0000000e+00  -1.8730716e-05  -7.6165427e-05  -3.7484513e-05  -8.0274421e-05  -5.4310388e-06   0.0000000e+00   0.0000000e+00  -2.0378609e-05  -2.8211476e-05  -8.5080162e-05   6.3207890e-05  -5.2621239e-05   1.1058316e-04  -4.6888686e-05  -3.5945798e-05   1.3236578e-05   2.7048529e-05   2.2545625e-05   0.0000000e+00   4.0457998e-06  -7.1474236e-04  -1.0391055e-04   8.2212169e-05  -1.0287731e-04   2.0893106e-05  -1.2461131e-04   0.0000000e+00   0.0000000e+00   1.9803813e-04   2.2904995e-04   0.0000000e+00   1.6509745e-04   0.0000000e+00   0.0000000e+00   0.0000000e+00   0.0000000e+00   0.0000000e+00   0.0000000e+00   8.5626750e-05   1.9723548e-04   1.1113959e-04   8.0036330e-05   1.1566980e-04   0.0000000e+00   0.0000000e+00   1.7040137e-04   2.0311932e-04   8.8786869e-05   2.6829224e-04   5.2587581e-04   6.0380754e-04  -2.0251113e-05   2.0917296e-04   9.6338847e-05   3.5765034e-04   5.6816745e-04   0.0000000e+00  -4.2311210e-05   2.3913577e-04   6.7654103e-04  -6.3905837e-04  -1.0409872e-04  -6.2349315e-05  -1.0160989e-04   0.0000000e+00   0.0000000e+00  -6.9888299e-04  -3.5273268e-04   0.0000000e+00  -3.0996628e-04   0.0000000e+00   0.0000000e+00   0.0000000e+00   0.0000000e+00   0.0000000e+00   0.0000000e+00  -2.2251086e-04  -2.6105817e-04  -5.9716471e-05  -2.1455164e-05  -1.0624522e-04   0.0000000e+00   0.0000000e+00  -3.4240562e-05  -3.1570817e-04  -2.4628967e-04   1.5179100e-05  -5.0170002e-04  -1.3946295e-06   7.9466665e-05  -2.4004390e-04  -8.1637749e-05  -1.6820726e-04  -4.4126583e-04   0.0000000e+00  -1.0959484e-04  -8.5230264e-07   7.1627302e-05   3.9960196e-05   2.9135981e-05   6.9135425e-05   2.5086261e-05   0.0000000e+00   0.0000000e+00   4.0210800e-05   5.2304508e-05   0.0000000e+00   3.7797390e-05   0.0000000e+00   0.0000000e+00   0.0000000e+00   0.0000000e+00   0.0000000e+00   0.0000000e+00  -1.4979351e-06   5.0844536e-05   1.4288331e-05   5.0231918e-05   1.3901679e-05   0.0000000e+00   0.0000000e+00   2.5964136e-06   7.0493186e-06   1.5344299e-05   3.6274726e-05   1.2305509e-04   1.0880312e-04   1.8251095e-05   6.6721530e-05  -1.3762393e-05   7.2026518e-06   3.9828379e-05   0.0000000e+00  -2.1142341e-05   9.4275607e-05  -6.6042534e-05  -1.6397428e-04  -1.9944111e-04  -1.4789828e-04  -3.2166033e-05   0.0000000e+00   0.0000000e+00  -1.4599832e-04  -5.0162447e-05   0.0000000e+00  -8.8730811e-05   0.0000000e+00   0.0000000e+00   0.0000000e+00   0.0000000e+00   0.0000000e+00   0.0000000e+00  -1.0316657e-04  -7.0987007e-05  -4.9332613e-05  -1.0218499e-04  -4.4584546e-05   0.0000000e+00   0.0000000e+00  -7.0544088e-05  -1.6399338e-04   4.1312509e-05   4.4740245e-05   2.9622281e-04   1.5936076e-05  -8.4099216e-05  -1.3074535e-04  -4.3163172e-05   1.6509339e-05   2.4754516e-05   0.0000000e+00   1.1871558e-04  -1.9807025e-04  -9.6780347e-05  -1.2777662e-04  -1.1929518e-04  -2.0969323e-04  -1.0395124e-04   0.0000000e+00   0.0000000e+00  -1.1186005e-04  -1.1090555e-04   0.0000000e+00  -1.2959667e-04   0.0000000e+00   0.0000000e+00   0.0000000e+00   0.0000000e+00   0.0000000e+00   0.0000000e+00  -1.2003817e-04  -1.2662680e-04  -9.9051035e-05  -7.7931111e-05  -6.2049986e-05   0.0000000e+00   0.0000000e+00  -9.9088007e-05  -9.8121737e-05  -4.1570083e-06  -1.2489258e-04  -6.1335178e-05  -3.6648700e-04  -8.1120121e-05  -1.3090474e-04  -6.7366976e-05  -1.0634728e-04  -1.5820690e-04   0.0000000e+00  -6.3151551e-05  -5.3906309e-05   6.0065764e-05   9.3178815e-05   8.9240504e-05   1.3879386e-04   1.7653188e-05   0.0000000e+00   0.0000000e+00   9.6101443e-05   3.1059611e-05   0.0000000e+00   2.3334646e-06   0.0000000e+00   0.0000000e+00   0.0000000e+00   0.0000000e+00   0.0000000e+00   0.0000000e+00  -3.9373079e-05   1.2120271e-05   2.1537780e-05   1.1421199e-04   1.6423534e-05   0.0000000e+00   0.0000000e+00   2.5479122e-05   2.7163601e-05   1.5193705e-04  -4.8498185e-05  -7.8688024e-05   9.4596416e-06   2.2644311e-05  -1.0230529e-04  -6.0182174e-05  -3.4466028e-05  -2.0273851e-04   0.0000000e+00   5.5406246e-05  -2.7914349e-04  -3.9397425e-04  -3.0944660e-04  -4.2494044e-04  -2.2182438e-04  -1.9871650e-04   0.0000000e+00   0.0000000e+00  -3.3525681e-04  -3.3894980e-04   0.0000000e+00  -3.9036466e-04   0.0000000e+00   0.0000000e+00   0.0000000e+00   0.0000000e+00   0.0000000e+00   0.0000000e+00  -3.5569737e-04  -3.5232468e-04  -3.7453039e-04  -2.3372916e-04  -1.7317570e-04   0.0000000e+00   0.0000000e+00  -2.1941203e-04  -1.3624895e-04  -1.3077059e-04  -2.2551539e-04  -4.7128255e-04  -5.4160195e-04  -2.8319022e-04  -1.9042641e-04  -2.2512889e-04  -2.0505886e-04  -4.5408536e-04   0.0000000e+00  -5.8315315e-04  -2.1148131e-05   6.7053658e-05  -1.0377236e-05  -2.6702353e-05  -3.5706580e-05  -5.6184792e-05   0.0000000e+00   0.0000000e+00  -4.3390493e-05   8.1497048e-08   0.0000000e+00  -7.3396358e-05   0.0000000e+00   0.0000000e+00   0.0000000e+00   0.0000000e+00   0.0000000e+00   0.0000000e+00  -9.8101850e-05  -4.6542713e-05  -1.0093828e-04   4.4265971e-05  -1.2072587e-05   0.0000000e+00   0.0000000e+00  -1.6528246e-05  -5.8667657e-05   5.1416070e-05   2.5015566e-06   3.7088865e-05  -3.5330316e-05  -6.8375085e-05  -1.2572861e-04  -8.5994626e-05   8.9812330e-06  -1.8362778e-05   0.0000000e+00   8.4173327e-06   9.6115122e-05  -6.0350355e-05   1.1433696e-05  -3.0512805e-05   1.6477927e-05  -4.6438527e-06   0.0000000e+00   0.0000000e+00   1.9244446e-05  -4.0536211e-05   0.0000000e+00  -4.8226602e-05   0.0000000e+00   0.0000000e+00   0.0000000e+00   0.0000000e+00   0.0000000e+00   0.0000000e+00  -2.6849217e-06  -2.5879303e-05  -4.1683169e-05  -5.1853560e-05  -2.6623072e-05   0.0000000e+00   0.0000000e+00  -5.6991529e-05  -3.4188027e-05  -4.5718585e-05  -7.1530824e-05  -3.4587012e-04  -1.7815554e-04  -9.4192524e-05  -1.1652161e-04  -5.0162114e-05  -9.0308384e-05  -1.9919099e-04   0.0000000e+00   5.4418068e-05  -1.7850092e-04  -2.8123841e-04  -1.2189876e-04  -6.4568390e-05  -1.9173170e-04  -4.3519349e-05   0.0000000e+00   0.0000000e+00   1.7397322e-05  -3.5766990e-05   0.0000000e+00   3.7124368e-05   0.0000000e+00   0.0000000e+00   0.0000000e+00   0.0000000e+00   0.0000000e+00   0.0000000e+00   9.9240176e-05  -6.3931260e-05   2.7176039e-04  -1.0189221e-04   7.3839600e-05   0.0000000e+00   0.0000000e+00   2.2449214e-04   4.6355564e-04  -3.2451312e-04   2.0297495e-04   2.0172631e-04  -4.4078729e-04   1.6416356e-04   3.0469249e-04   2.3284062e-04  -7.5019145e-05   2.7472039e-04   0.0000000e+00   5.3400987e-05
   2.4004758e-05  -4.7781355e-05  -9.8605073e-05  -7.3817498e-05   3.5192246e-05  -1.3668805e-05   0.0000000e+00   0.0000000e+00  -1.0637387e-04  -5.5491271e-05   0.0000000e+00  -5.3406846e-05   0.0000000e+00   0.0000000e+00   0.0000000e+00   0.0000000e+00   0.0000000e+00   0.0000000e+00  -3.0367518e-05  -8.8150014e-05  -4.8902390e-05  -8.9384061e-05  -1.1356943e-05   0.0000000e+00   0.0000000e+00  -3.1515119e-05  -4.0059398e-05  -9.1541118e-05   5.9954550e-05  -5.1860178e-05   1.0298264e-04  -5.8397784e-05  -4.9172484e-05   5.9071476e-06   2.1744546e-05   1.8775606e-05   0.0000000e+00   1.1107419e-06  -6.6733656e-04  -9.9591994e-05   6.9435344e-05  -1.2066500e-04   1.8944874e-05  -1.2731529e-04   0.0000000e+00   0.0000000e+00   1.8580564e-04   2.3756101e-04   0.0000000e+00   1.7106571e-04   0.0000000e+00   0.0000000e+00   0.0000000e+00   0.0000000e+00   0.0000000e+00   0.0000000e+00   9.5530108e-05   1.9916052e-04   1.1257847e-04   9.5684670e-05   1.2447866e-04   0.0000000e+00   0.0000000e+00   1.8605578e-04   2.2193179e-04   9.2019052e-05   2.9025219e-04   5.2216912e-04   6.3011536e-04  -1.7738005e-05   2.2489182e-04   9.8366036e-05   3.7053660e-04   5.7469873e-04   0.0000000e+00  -3.8408640e-05   2.3661488e-04   6.8918577e-04  -6.3930470e-04  -1.1553136e-04  -6.4471858e-05  -1.0077025e-04   0.0000000e+00   0.0000000e+00  -6.8336161e-04  -3.5254653e-04   0.0000000e+00  -3.1492129e-04   0.0000000e+00   0.0000000e+00   0.0000000e+00   0.0000000e+00   0.0000000e+00   0.0000000e+00  -2.3814124e-04  -2.6629875e-04  -6.7070566e-05  -2.3277813e-05  -1.0547733e-04   0.0000000e+00   0.0000000e+00  -4.1094798e-05  -3.0941229e-04  -2.5042415e-04   2.2777288e-05  -5.3012515e-04   1.2100147e-05   7.5072045e-05  -2.0918953e-04  -7.5686889e-05  -1.6568268e-04  -4.5668219e-04   0.0000000e+00  -1.1392661e-04   2.1257555e-05   8.0012330e-05   4.7880093e-05   3.4417406e-05   8.4664593e-05   3.2719372e-05   0.0000000e+00   0.0000000e+00   4.7552313e-05   5.9503688e-05   0.0000000e+00   4.5713698e-05   0.0000000e+00   0.0000000e+00   0.0000000e+00   0.0000000e+00   0.0000000e+00   0.0000000e+00   5.8040554e-06   5.7487376e-05   2.0346573e-05   5.3593581e-05   1.6143202e-05   0.0000000e+00   0.0000000e+00   9.6267776e-06   1.4182767e-05   1.3798400e-05   3.7032627e-05   1.1874218e-04   1.1446080e-04   2.3559240e-05   7.4420334e-05  -1.1670261e-05   7.3146480e-06   4.0968312e-05   0.0000000e+00  -2.3479819e-05   9.7445375e-05  -5.1233555e-05  -1.4636728e-04  -1.7952523e-04  -1.4587655e-04  -2.7835335e-05   0.0000000e+00   0.0000000e+00  -1.3336955e-04  -4.0700341e-05   0.0000000e+00  -8.0731144e-05   0.0000000e+00   0.0000000e+00   0.0000000e+00   0.0000000e+00   0.0000000e+00   0.0000000e+00  -9.7919300e-05  -5.9059382e-05  -4.1189230e-05  -8.6977084e-05  -4.2819431e-05   0.0000000e+00   0.0000000e+00  -6.5837117e-05  -1.6421601e-04   5.2736217e-05   4.5986704e-05   2.8995373e-04   2.6477736e-05  -7.5722379e-05  -1.3506997e-04  -4.4372190e-05   1.6796849e-05   2.3122868e-05   0.0000000e+00   1.2276377e-04  -1.9424424e-04  -9.5351056e-05  -1.2646073e-04  -1.1928628e-04  -2.1428796e-04  -1.0076818e-04   0.0000000e+00   0.0000000e+00  -1.0862527e-04  -1.0808685e-04   0.0000000e+00  -1.2365231e-04   0.0000000e+00   0.0000000e+00   0.0000000e+00   0.0000000e+00   0.0000000e+00   0.0000000e+00  -1.1324320e-04  -1.2305238e-04  -9.5214806e-05  -7.5575475e-05  -5.9515425e-05   0.0000000e+00   0.0000000e+00  -9.1065005e-05  -8.7895197e-05  -2.6616933e-07  -1.2563352e-04  -6.3352711e-05  -3.7274428e-04  -7.5118124e-05  -1.2255293e-04  -6.1407867e-05  -1.0802679e-04  -1.5610151e-04   0.0000000e+00  -6.7188801e-05  -6.1543229e-05   6.9074132e-05   9.4599509e-05   9.3476746e-05   1.3973541e-04   1.2473554e-05   0.0000000e+00   0.0000000e+00   9.0540924e-05   2.6828680e-05   0.0000000e+00  -6.1739797e-06   0.0000000e+00   0.0000000e+00   0.0000000e+00   0.0000000e+00   0.0000000e+00   0.0000000e+00  -4.9633420e-05   3.5377911e-06   8.9949017e-06   1.1625598e-04   8.7694633e-06   0.0000000e+00   0.0000000e+00   1.4698209e-05   1.1706100e-05   1.5183961e-04  -5.6824754e-05  -7.3057038e-05   8.2153479e-06   1.5086065e-05  -1.2441475e-04  -7.1808994e-05  -4.3601089e-05  -2.0898918e-04   0.0000000e+00   6.0662108e-05  -3.0082736e-04  -4.2056139e-04  -3.2181131e-04  -4.5200546e-04  -2.4519123e-04  -2.0980787e-04   0.0000000e+00   0.0000000e+00  -3.4629229e-04  -3.5531081e-04   0.0000000e+00  -4.0258423e-04   0.0000000e+00   0.0000000e+00   0.0000000e+00   0.0000000e+00   0.0000000e+00   0.0000000e+00  -3.7071506e-04  -3.6648806e-04  -3.9489777e-04  -2.5735213e-04  -1.8099119e-04   0.0000000e+00   0.0000000e+00  -2.3499629e-04  -1.4383271e-04  -1.4531110e-04  -2.4133130e-04  -4.9730271e-04  -5.6080339e-04  -2.9495868e-04  -1.8260569e-04  -2.3417081e-04  -2.2234161e-04  -4.7508592e-04   0.0000000e+00  -6.0553961e-04  -5.6393657e-06   8.5875470e-05   1.0056862e-05  -7.5569934e-06  -1.8816428e-05  -4.2639791e-05   0.0000000e+00   0.0000000e+00  -2.4993407e-05   1.1381412e-05   0.0000000e+00  -5.8107265e-05   0.0000000e+00   0.0000000e+00   0.0000000e+00   0.0000000e+00   0.0000000e+00   0.0000000e+00  -8.4553491e-05  -3.3067813e-05  -8.5726594e-05   6.0038217e-05  -6.4916534e-06   0.0000000e+00   0.0000000e+00  -4.3810708e-06  -4.6338504e-05   5.9816567e-05   1.9055333e-06   4.8330026e-05  -3.5767180e-05  -5.8720207e-05  -1.0956684e-04  -7.9540764e-05   1.3193540e-05  -1.2347392e-05   0.0000000e+00   1.4440405e-05   9.7842118e-05  -6.6745630e-05   1.9349959e-05  -2.3354419e-05   2.8644775e-05  -4.2912165e-08   0.0000000e+00   0.0000000e+00   2.3847805e-05  -4.0824563e-05   0.0000000e+00  -4.5736422e-05   0.0000000e+00   0.0000000e+00   0.0000000e+00   0.0000000e+00   0.0000000e+00   0.0000000e+00   2.9232871e-06  -2.4937621e-05  -4.2024501e-05  -5.1527501e-05  -2.7340831e-05   0.0000000e+00   0.0000000e+00  -6.1277922e-05  -2.5274984e-05  -4.3920531e-05  -8.6796061e-05  -3.4795197e-04  -1.9392108e-04  -9.4514683e-05  -1.1661694e-04  -5.4707939e-05  -9.8886582e-05  -2.0965222e-04   0.0000000e+00   4.8664274e-05  -1.6644718e-04  -2.7142090e-04  -8.1052997e-05  -9.7944491e-06  -1.9866715e-04  -3.7586590e-05   0.0000000e+00   0.0000000e+00   7.0863525e-05  -6.2669621e-06   0.0000000e+00   6.7722702e-05   0.0000000e+00   0.0000000e+00   0.0000000e+00   0.0000000e+00   0.0000000e+00   0.0000000e+00   1.2728123e-04  -3.2249929e-05   3.0066918e-04  -6.8194469e-05   9.2554127e-05   0.0000000e+00   0.0000000e+00   2.4987274e-04   4.7760562e-04  -2.9874413e-04   2.0649475e-04   1.9007161e-04  -4.1513841e-04   1.9168448e-04   3.1201184e-04   2.3633146e-04  -6.6330786e-05   2.7516648e-04   0.0000000e+00   5.6338063e-05
