   0.0000000e+00   3.6439749e-05   0.0000000e+00   9.5167024e-06   0.0000000e+00   3.6258147e-05   2.2164709e-04   0.0000000e+00   0.0000000e+00   0.0000000e+00   0.0000000e+00   4.5874287e-05  -1.5452612e-04   3.4009940e-06   0.0000000e+00   0.0000000e+00   0.0000000e+00   0.0000000e+00   6.8929678e-05   5.0377484e-05   4.5147388e-05   5.2232066e-05   9.3656239e-05   1.7309048e-06   9.2812402e-06   1.0733340e-04   4.4328700e-05   2.7283749e-05  -1.8302235e-04   0.0000000e+00   0.0000000e+00   6.1055144e-05   5.7502593e-06  -8.7706297e-06  -4.0672212e-05   0.0000000e+00  -2.4119707e-06   0.0000000e+00   0.0000000e+00   2.7749315e-05   0.0000000e+00   4.7196991e-05   0.0000000e+00   4.3191470e-05   9.8942382e-05   0.0000000e+00   0.0000000e+00   0.0000000e+00   0.0000000e+00   6.0171504e-05  -1.6360719e-04   6.5745963e-05   0.0000000e+00   0.0000000e+00   0.0000000e+00   0.0000000e+00   6.0987834e-05   7.6955252e-05   9.8087487e-05   3.6516407e-05   9.3922900e-05   3.9580459e-05   8.9523507e-06   1.3536376e-04   8.8140099e-05   3.8166160e-05  -2.2917853e-04   0.0000000e+00   0.0000000e+00   8.4425173e-05   1.1819883e-04   4.0788631e-05  -1.3650191e-06   0.0000000e+00  -1.1274356e-04   0.0000000e+00   0.0000000e+00   8.0617631e-05   0.0000000e+00   8.0271835e-05   0.0000000e+00   1.5171095e-05   7.5757824e-05   0.0000000e+00   0.0000000e+00   0.0000000e+00   0.0000000e+00   2.2147644e-04   1.6490196e-04  -5.4481551e-05   0.0000000e+00   0.0000000e+00   0.0000000e+00   0.0000000e+00   2.6898197e-05   1.6888887e-04   1.7534025e-04   1.4817723e-05   1.9024792e-04   4.3380219e-05  -5.3811833e-05   1.9564663e-04   1.0067846e-04   6.6996516e-05  -2.9565992e-04   0.0000000e+00   0.0000000e+00   1.7039554e-04   1.7142787e-05   3.2387890e-05  -1.1006805e-04   0.0000000e+00   5.9001880e-05   0.0000000e+00   0.0000000e+00  -2.3910334e-05   0.0000000e+00  -4.9456025e-05   0.0000000e+00   1.2378574e-05  -7.8300058e-05   0.0000000e+00   0.0000000e+00   0.0000000e+00   0.0000000e+00   2.0109306e-05  -3.2237297e-05  -1.0314919e-04   0.0000000e+00   0.0000000e+00   0.0000000e+00   0.0000000e+00   2.5021182e-05   2.3272905e-05   7.3354237e-06   8.2813905e-06   1.7023446e-05  -2.7976377e-05  -1.4461610e-05   6.8728628e-06  -9.2349265e-06  -2.3986056e-05  -6.4938721e-05   0.0000000e+00   0.0000000e+00   2.8788488e-05  -1.2497713e-05  -2.5276871e-05  -4.3243606e-05   0.0000000e+00   3.0479227e-05   0.0000000e+00   0.0000000e+00  -2.9831164e-05   0.0000000e+00  -3.9840711e-05   0.0000000e+00   3.5485575e-05   7.0129935e-05   0.0000000e+00   0.0000000e+00   0.0000000e+00   0.0000000e+00   4.2668954e-05  -2.0415652e-04  -2.9261726e-04   0.0000000e+00   0.0000000e+00   0.0000000e+00   0.0000000e+00   6.6933875e-05   3.1484299e-05   5.7099522e-05   5.8100495e-05   7.4049729e-05  -4.6037698e-06  -1.4449318e-05   1.0266019e-04   3.7380777e-05   9.7143758e-06  -1.9092522e-04   0.0000000e+00   0.0000000e+00   1.0555155e-04   2.4774791e-05  -1.5618719e-05  -3.0788492e-05   0.0000000e+00  -1.9347935e-04   0.0000000e+00   0.0000000e+00   9.5792760e-06   0.0000000e+00  -7.4502834e-06   0.0000000e+00   3.0181093e-05   2.1453543e-04   0.0000000e+00   0.0000000e+00   0.0000000e+00   0.0000000e+00   2.4093121e-05  -4.0021383e-05   1.4886686e-04   0.0000000e+00   0.0000000e+00   0.0000000e+00   0.0000000e+00   1.5647170e-05   3.4979269e-05   2.7029745e-05   4.4506641e-05   5.1052734e-05   1.0631528e-05   1.4186767e-05   4.5612114e-05   2.6325266e-05   6.9110492e-06  -4.9831359e-05   0.0000000e+00   0.0000000e+00   4.4609346e-05   1.5802153e-05  -4.9669021e-06  -1.0574534e-05   0.0000000e+00   1.6545321e-05   0.0000000e+00   0.0000000e+00  -3.4230711e-05   0.0000000e+00  -8.0572184e-05   0.0000000e+00   9.7956839e-06   7.9942166e-04   0.0000000e+00   0.0000000e+00   0.0000000e+00   0.0000000e+00   7.2175830e-06   3.0029057e-06   3.2924794e-04   0.0000000e+00   0.0000000e+00   0.0000000e+00   0.0000000e+00  -7.5989248e-06   4.2016060e-05  -2.4332122e-06  -2.1639852e-05  -4.9588791e-06  -1.1177815e-05   9.6194008e-06  -1.5359727e-05  -3.6383245e-05  -2.5004269e-05   2.4025389e-05   0.0000000e+00   0.0000000e+00  -3.3461616e-05  -1.0734076e-04  -3.0026455e-05  -3.0786165e-05   0.0000000e+00   3.4041876e-04   0.0000000e+00   0.0000000e+00  -1.1104403e-05   0.0000000e+00  -6.1778626e-05   0.0000000e+00   3.8200855e-05   1.4533151e-04   0.0000000e+00   0.0000000e+00   0.0000000e+00   0.0000000e+00   2.9511335e-05  -1.3912777e-04   6.5804509e-06   0.0000000e+00   0.0000000e+00   0.0000000e+00   0.0000000e+00   3.8193475e-05   6.1338425e-05   2.2804983e-07   1.1079272e-05   2.9075926e-05  -6.1630865e-05  -3.1749395e-05   1.7948634e-05  -3.8890339e-06  -2.8569290e-05  -3.9000764e-04   0.0000000e+00   0.0000000e+00   5.6109543e-06  -5.5062020e-05  -4.4806831e-05  -8.4499494e-05   0.0000000e+00   1.1337452e-04   0.0000000e+00   0.0000000e+00   9.1114313e-05   0.0000000e+00   5.1987852e-05   0.0000000e+00   1.2205761e-04   2.6094295e-04   0.0000000e+00   0.0000000e+00   0.0000000e+00   0.0000000e+00   1.2171122e-04   1.9623791e-06   1.8588064e-05   0.0000000e+00   0.0000000e+00   0.0000000e+00   0.0000000e+00   1.4795572e-04   1.4964927e-04   7.6587983e-05   8.0632850e-05   1.1312100e-04   5.4750558e-05   8.2581425e-05   8.2600488e-05   9.8600530e-05   6.6338582e-05  -1.4217352e-04   0.0000000e+00   0.0000000e+00   9.3184939e-05   5.3623047e-05   1.1880960e-06   8.2845892e-05   0.0000000e+00  -1.0386822e-05   0.0000000e+00   0.0000000e+00   3.7304210e-06   0.0000000e+00  -1.5166944e-05   0.0000000e+00   8.5655919e-06  -1.0533445e-04   0.0000000e+00   0.0000000e+00   0.0000000e+00   0.0000000e+00  -1.1043927e-05  -8.1351854e-05  -7.9685954e-05   0.0000000e+00   0.0000000e+00   0.0000000e+00   0.0000000e+00  -1.2169222e-06   5.8813566e-06   3.6731734e-06   1.4864456e-05   4.7522761e-05   1.2021667e-05   1.3594518e-05   6.1395643e-05   2.9616914e-05   2.7362737e-05  -4.1430922e-05   0.0000000e+00   0.0000000e+00   3.8402894e-05   3.2873871e-05  -2.0901886e-05  -1.9841495e-05   0.0000000e+00  -7.5545268e-05   0.0000000e+00   0.0000000e+00   2.5661078e-05   0.0000000e+00  -1.8905055e-05   0.0000000e+00   1.6900569e-05   9.5552835e-05   0.0000000e+00   0.0000000e+00   0.0000000e+00   0.0000000e+00   1.2135861e-05   1.0402376e-04   1.3186424e-04   0.0000000e+00   0.0000000e+00   0.0000000e+00   0.0000000e+00   7.8494195e-06  -1.6672169e-05  -3.8949432e-06   1.4960846e-05  -1.1717989e-05  -1.3881235e-05  -3.4976447e-05   1.6848559e-06  -4.5141391e-05  -4.6737983e-05  -1.0708118e-05   0.0000000e+00   0.0000000e+00  -3.5736793e-05  -2.1900891e-04  -6.2865012e-05  -1.1817211e-04   0.0000000e+00   5.8082705e-05   0.0000000e+00
   0.0000000e+00   3.7362389e-05   0.0000000e+00   3.8240252e-06   0.0000000e+00   4.2051164e-05   2.7300713e-04   0.0000000e+00   0.0000000e+00   0.0000000e+00   0.0000000e+00   5.1132330e-05  -1.7129005e-04   1.4368163e-05   0.0000000e+00   0.0000000e+00   0.0000000e+00   0.0000000e+00   7.3172122e-05   5.6473863e-05   4.9856240e-05   5.6830576e-05   1.0576153e-04  -7.7998113e-07   8.2109349e-06   1.1962692e-04   4.7237792e-05   2.7553481e-05  -2.1388995e-04   0.0000000e+00   0.0000000e+00   6.9029313e-05   3.8402476e-06  -1.1607025e-05  -4.8690426e-05   0.0000000e+00   6.8381965e-06   0.0000000e+00   0.0000000e+00   4.6628793e-05   0.0000000e+00   5.8765907e-05   0.0000000e+00   4.3387417e-05   8.9375130e-05   0.0000000e+00   0.0000000e+00   0.0000000e+00   0.0000000e+00   6.4731595e-05  -1.7705124e-04   5.3742066e-05   0.0000000e+00   0.0000000e+00   0.0000000e+00   0.0000000e+00   6.6088166e-05   9.2758838e-05   1.1113184e-04   1.7942982e-05   1.0757768e-04   4.7738452e-05   5.0254295e-06   1.5301318e-04   9.4499699e-05   4.7101811e-05  -2.2698849e-04   0.0000000e+00   0.0000000e+00   9.6666344e-05   1.3128274e-04   4.3744591e-05  -3.6373075e-06   0.0000000e+00  -1.1916481e-04   0.0000000e+00   0.0000000e+00   7.4425806e-05   0.0000000e+00   8.0588368e-05   0.0000000e+00   6.7362000e-06   9.9612778e-05   0.0000000e+00   0.0000000e+00   0.0000000e+00   0.0000000e+00   2.2638512e-04   1.9393038e-04  -5.4198924e-05   0.0000000e+00   0.0000000e+00   0.0000000e+00   0.0000000e+00   9.1163529e-06   1.8375506e-04   1.8498791e-04  -1.9733246e-07   1.9342411e-04   3.3794065e-05  -8.6079395e-05   1.8734249e-04   8.9088532e-05   6.1927793e-05  -3.3151750e-04   0.0000000e+00   0.0000000e+00   1.5449758e-04   1.1137357e-06   2.2758320e-05  -1.3868704e-04   0.0000000e+00   6.9653038e-05   0.0000000e+00   0.0000000e+00  -3.0944073e-05   0.0000000e+00  -5.9014884e-05   0.0000000e+00   1.1169010e-05  -1.0594087e-04   0.0000000e+00   0.0000000e+00   0.0000000e+00   0.0000000e+00   1.9737621e-05  -3.0726734e-05  -1.1610418e-04   0.0000000e+00   0.0000000e+00   0.0000000e+00   0.0000000e+00   2.3654393e-05   2.2058615e-05   6.1416975e-06   7.7580794e-06   1.2994862e-05  -3.2754403e-05  -1.6253111e-05   9.7738754e-07  -1.4933568e-05  -2.9890208e-05  -6.7177834e-05   0.0000000e+00   0.0000000e+00   2.7007447e-05  -1.5189057e-05  -2.7436401e-05  -4.4993826e-05   0.0000000e+00   2.2472489e-05   0.0000000e+00   0.0000000e+00  -3.2942446e-05   0.0000000e+00  -4.6425831e-05   0.0000000e+00   3.5572254e-05   6.7914444e-05   0.0000000e+00   0.0000000e+00   0.0000000e+00   0.0000000e+00   4.2010388e-05  -2.2356535e-04  -3.1301837e-04   0.0000000e+00   0.0000000e+00   0.0000000e+00   0.0000000e+00   6.5787157e-05   3.4017212e-05   6.1765575e-05   5.8544571e-05   7.5669686e-05  -8.8111412e-06  -2.1046337e-05   1.1211121e-04   4.1323824e-05   8.7291904e-06  -2.0991750e-04   0.0000000e+00   0.0000000e+00   1.1667490e-04   2.9754616e-05  -1.7789519e-05  -3.8488102e-05   0.0000000e+00  -2.1459679e-04   0.0000000e+00   0.0000000e+00   7.3645754e-06   0.0000000e+00  -1.0449644e-05   0.0000000e+00   3.2008395e-05   2.2716840e-04   0.0000000e+00   0.0000000e+00   0.0000000e+00   0.0000000e+00   2.2226351e-05  -4.1605734e-05   1.6607102e-04   0.0000000e+00   0.0000000e+00   0.0000000e+00   0.0000000e+00   1.2578278e-05   3.6665294e-05   2.8410877e-05   4.4873341e-05   5.3477092e-05   8.2565542e-06   1.0836788e-05   4.5499713e-05   2.4918836e-05   2.6745617e-06  -6.4642306e-05   0.0000000e+00   0.0000000e+00   4.6833542e-05   1.4491734e-05  -9.2359602e-06  -1.7684181e-05   0.0000000e+00   2.0923108e-05   0.0000000e+00   0.0000000e+00  -4.9860774e-05   0.0000000e+00  -9.1849735e-05   0.0000000e+00   2.7849510e-06   8.5750838e-04   0.0000000e+00   0.0000000e+00   0.0000000e+00   0.0000000e+00  -8.4922893e-06   9.5494444e-06   3.7438496e-04   0.0000000e+00   0.0000000e+00   0.0000000e+00   0.0000000e+00  -2.4480875e-05   3.6594846e-05  -1.2410832e-05  -2.9471802e-05  -2.1810210e-05  -1.7081032e-05   5.8040293e-06  -3.8124454e-05  -5.1536796e-05  -3.5399792e-05   4.6351055e-05   0.0000000e+00   0.0000000e+00  -5.0653248e-05  -1.2899741e-04  -3.0087452e-05  -3.4240913e-05   0.0000000e+00   3.5914549e-04   0.0000000e+00   0.0000000e+00  -1.7681667e-05   0.0000000e+00  -7.2133524e-05   0.0000000e+00   3.8782731e-05   1.5379880e-04   0.0000000e+00   0.0000000e+00   0.0000000e+00   0.0000000e+00   2.5780540e-05  -1.5719702e-04   1.1655927e-05   0.0000000e+00   0.0000000e+00   0.0000000e+00   0.0000000e+00   2.8941351e-05   6.1235478e-05  -8.4583075e-06   2.7989091e-06   2.5339314e-05  -6.9390535e-05  -3.9129228e-05   7.1045422e-06  -1.3146249e-05  -3.5888373e-05  -3.9501306e-04   0.0000000e+00   0.0000000e+00  -3.4231789e-06  -6.5084643e-05  -5.0561967e-05  -8.7007871e-05   0.0000000e+00   1.2969751e-04   0.0000000e+00   0.0000000e+00   9.6553517e-05   0.0000000e+00   5.5362798e-05   0.0000000e+00   1.3325745e-04   2.9013968e-04   0.0000000e+00   0.0000000e+00   0.0000000e+00   0.0000000e+00   1.3196542e-04   1.1820712e-05   1.7453156e-05   0.0000000e+00   0.0000000e+00   0.0000000e+00   0.0000000e+00   1.6023052e-04   1.6155084e-04   8.2620971e-05   8.4838800e-05   1.2235804e-04   6.2442947e-05   8.8123857e-05   8.5459503e-05   1.0770619e-04   6.9883618e-05  -1.4116932e-04   0.0000000e+00   0.0000000e+00   9.7591142e-05   5.6700923e-05   1.0024746e-05   9.7180867e-05   0.0000000e+00  -9.8146187e-06   0.0000000e+00   0.0000000e+00   3.6739740e-06   0.0000000e+00  -2.0192023e-05   0.0000000e+00   8.4668708e-06  -1.5486908e-04   0.0000000e+00   0.0000000e+00   0.0000000e+00   0.0000000e+00  -1.2075748e-05  -1.0136832e-04  -1.1497131e-04   0.0000000e+00   0.0000000e+00   0.0000000e+00   0.0000000e+00  -1.1299250e-06   7.6272299e-06   3.7430651e-06   1.5149322e-05   5.2561953e-05   1.3617830e-05   9.1436175e-06   6.8209679e-05   3.2280212e-05   2.9053714e-05  -5.0875415e-05   0.0000000e+00   0.0000000e+00   4.4514903e-05   3.9864256e-05  -2.1994743e-05  -2.2761785e-05   0.0000000e+00  -9.0680366e-05   0.0000000e+00   0.0000000e+00   2.7041306e-05   0.0000000e+00  -1.6298189e-05   0.0000000e+00   2.0552485e-05   1.1270344e-04   0.0000000e+00   0.0000000e+00   0.0000000e+00   0.0000000e+00   1.7253322e-05   1.1631694e-04   1.4898144e-04   0.0000000e+00   0.0000000e+00   0.0000000e+00   0.0000000e+00   7.2415241e-06  -2.1544740e-05  -3.0966470e-06   1.8650777e-05  -1.2316600e-05  -1.4821227e-05  -3.6971100e-05   4.8088847e-06  -5.0956264e-05  -4.7009475e-05  -1.8045419e-05   0.0000000e+00   0.0000000e+00  -4.2205250e-05  -2.3768583e-04  -6.5734688e-05  -1.3415766e-04   0.0000000e+00   6.1089024e-05   0.0000000e+00
   0.0000000e+00   3.7104921e-05   0.0000000e+00  -3.1377367e-06   0.0000000e+00   4.7476236e-05   3.2368804e-04   0.0000000e+00   0.0000000e+00   0.0000000e+00   0.0000000e+00   5.5575125e-05  -1.8521105e-04   2.6256355e-05   0.0000000e+00   0.0000000e+00   0.0000000e+00   0.0000000e+00   7.5550990e-05   6.1737718e-05   5.3735417e-05   6.0351850e-05   1.1639534e-04  -3.6890176e-06   6.6604020e-06   1.2998504e-04   4.9015314e-05   2.6911910e-05  -2.4219109e-04   0.0000000e+00   0.0000000e+00   7.6062408e-05   1.4310923e-06  -1.4543657e-05  -5.6523398e-05   0.0000000e+00   1.7774699e-05   0.0000000e+00   0.0000000e+00   7.1064690e-05   0.0000000e+00   7.3766386e-05   0.0000000e+00   4.3255348e-05   6.8267336e-05   0.0000000e+00   0.0000000e+00   0.0000000e+00   0.0000000e+00   7.1045840e-05  -1.8267592e-04   3.1686141e-05   0.0000000e+00   0.0000000e+00   0.0000000e+00   0.0000000e+00   7.1371667e-05   1.0950145e-04   1.2395760e-04  -4.2870603e-06   1.2069164e-04   5.8633669e-05   3.3477279e-06   1.6990379e-04   1.0047354e-04   5.8803281e-05  -2.0499686e-04   0.0000000e+00   0.0000000e+00   1.0799293e-04   1.4341081e-04   4.7550785e-05  -2.4389650e-06   0.0000000e+00  -1.2379132e-04   0.0000000e+00   0.0000000e+00   6.3669918e-05   0.0000000e+00   7.6427481e-05   0.0000000e+00  -3.9483971e-06   1.2311077e-04   0.0000000e+00   0.0000000e+00   0.0000000e+00   0.0000000e+00   2.2288579e-04   2.2241827e-04  -5.2960323e-05   0.0000000e+00   0.0000000e+00   0.0000000e+00   0.0000000e+00  -1.4648642e-05   1.9489713e-04   1.8976175e-04  -1.8945420e-05   1.8969393e-04   2.0082465e-05  -1.2254163e-04   1.6948217e-04   6.9914201e-05   5.2200448e-05  -3.6513509e-04   0.0000000e+00   0.0000000e+00   1.2907294e-04  -1.9170179e-05   9.1886880e-06  -1.7060515e-04   0.0000000e+00   7.8155082e-05   0.0000000e+00   0.0000000e+00  -3.8542353e-05   0.0000000e+00  -6.8416835e-05   0.0000000e+00   9.0691082e-06  -1.3512320e-04   0.0000000e+00   0.0000000e+00   0.0000000e+00   0.0000000e+00   1.8217917e-05  -2.8925091e-05  -1.2727847e-04   0.0000000e+00   0.0000000e+00   0.0000000e+00   0.0000000e+00   2.1082802e-05   1.9628656e-05   4.3589540e-06   6.6709674e-06   7.6029998e-06  -3.7616450e-05  -1.7831820e-05  -6.1390623e-06  -2.1144419e-05  -3.5956949e-05  -6.8764141e-05   0.0000000e+00   0.0000000e+00   2.3975193e-05  -1.7746419e-05  -2.9221260e-05  -4.5678281e-05   0.0000000e+00   1.0888146e-05   0.0000000e+00   0.0000000e+00  -3.4308217e-05   0.0000000e+00  -5.2837705e-05   0.0000000e+00   3.4373682e-05   5.8117315e-05   0.0000000e+00   0.0000000e+00   0.0000000e+00   0.0000000e+00   4.0446229e-05  -2.3562889e-04  -3.2861490e-04   0.0000000e+00   0.0000000e+00   0.0000000e+00   0.0000000e+00   6.2191815e-05   3.5450006e-05   6.4835490e-05   5.6421766e-05   7.4506604e-05  -1.2948777e-05  -2.7776366e-05   1.1838538e-04   4.4282935e-05   7.3730618e-06  -2.2331640e-04   0.0000000e+00   0.0000000e+00   1.2562051e-04   3.4415486e-05  -1.9631662e-05  -4.5880837e-05   0.0000000e+00  -2.3425658e-04   0.0000000e+00   0.0000000e+00   4.4023004e-06   0.0000000e+00  -1.3813735e-05   0.0000000e+00   3.2990582e-05   2.3544648e-04   0.0000000e+00   0.0000000e+00   0.0000000e+00   0.0000000e+00   1.9067658e-05  -4.2072057e-05   1.8213632e-04   0.0000000e+00   0.0000000e+00   0.0000000e+00   0.0000000e+00   8.2476943e-06   3.7327966e-05   2.9011169e-05   4.3555706e-05   5.4374617e-05   4.9993832e-06   6.4553950e-06   4.3517962e-05   2.2254679e-05  -2.6725933e-06  -8.0575465e-05   0.0000000e+00   0.0000000e+00   4.7721844e-05   1.2342648e-05  -1.3787055e-05  -2.5427196e-05   0.0000000e+00   2.4867369e-05   0.0000000e+00   0.0000000e+00  -6.7125488e-05   0.0000000e+00  -1.0275350e-04   0.0000000e+00  -6.0082752e-06   8.9941296e-04   0.0000000e+00   0.0000000e+00   0.0000000e+00   0.0000000e+00  -2.7784054e-05   1.6692718e-05   4.1829299e-04   0.0000000e+00   0.0000000e+00   0.0000000e+00   0.0000000e+00  -4.4574029e-05   2.8334661e-05  -2.4295704e-05  -3.8032035e-05  -4.2175147e-05  -2.4646879e-05  -1.2740441e-07  -6.4920301e-05  -6.8420415e-05  -4.7339795e-05   6.7313985e-05   0.0000000e+00   0.0000000e+00  -7.0701872e-05  -1.5102381e-04  -3.0127179e-05  -3.8763503e-05   0.0000000e+00   3.7147827e-04   0.0000000e+00   0.0000000e+00  -2.5192124e-05   0.0000000e+00  -8.1455053e-05   0.0000000e+00   3.7926759e-05   1.4739255e-04   0.0000000e+00   0.0000000e+00   0.0000000e+00   0.0000000e+00   1.9995733e-05  -1.7379376e-04   8.3079140e-06   0.0000000e+00   0.0000000e+00   0.0000000e+00   0.0000000e+00   1.6758920e-05   5.8970525e-05  -1.8914387e-05  -7.1311029e-06   1.9346296e-05  -7.5789618e-05  -4.6343109e-05  -6.6038816e-06  -2.3548736e-05  -4.3216072e-05  -3.8536655e-04   0.0000000e+00   0.0000000e+00  -1.4553600e-05  -7.5106923e-05  -5.5468394e-05  -8.6563525e-05   0.0000000e+00   1.4239620e-04   0.0000000e+00   0.0000000e+00   1.0000837e-04   0.0000000e+00   5.7751815e-05   0.0000000e+00   1.4210735e-04   3.0934676e-04   0.0000000e+00   0.0000000e+00   0.0000000e+00   0.0000000e+00   1.4000621e-04   2.3019375e-05   1.3274628e-05   0.0000000e+00   0.0000000e+00   0.0000000e+00   0.0000000e+00   1.7074488e-04   1.7090115e-04   8.7447789e-05   8.6450885e-05   1.2922182e-04   6.9126868e-05   9.1682033e-05   8.5991571e-05   1.1433797e-04   7.2009478e-05  -1.3650744e-04   0.0000000e+00   0.0000000e+00   1.0012327e-04   5.8771813e-05   1.9968419e-05   1.1119841e-04   0.0000000e+00  -1.0801304e-05   0.0000000e+00   0.0000000e+00   3.9685050e-06   0.0000000e+00  -2.5583616e-05   0.0000000e+00   7.7173671e-06  -2.0938386e-04   0.0000000e+00   0.0000000e+00   0.0000000e+00   0.0000000e+00  -1.2963984e-05  -1.2213133e-04  -1.5424855e-04   0.0000000e+00   0.0000000e+00   0.0000000e+00   0.0000000e+00  -1.1068208e-06   9.5338776e-06   3.5331151e-06   1.4341269e-05   5.6787641e-05   1.5063472e-05   3.7634734e-06   7.4054254e-05   3.4660009e-05   3.0604132e-05  -5.7550355e-05   0.0000000e+00   0.0000000e+00   5.0572105e-05   4.6886168e-05  -2.1949407e-05  -2.4143411e-05   0.0000000e+00  -1.0830393e-04   0.0000000e+00   0.0000000e+00   2.7858279e-05   0.0000000e+00  -1.2556848e-05   0.0000000e+00   2.4472045e-05   1.3065278e-04   0.0000000e+00   0.0000000e+00   0.0000000e+00   0.0000000e+00   2.3036575e-05   1.2686126e-04   1.6523728e-04   0.0000000e+00   0.0000000e+00   0.0000000e+00   0.0000000e+00   6.2771105e-06  -2.6819221e-05  -2.1303852e-06   2.1888039e-05  -1.1757043e-05  -1.5275834e-05  -3.7672057e-05   8.6691167e-06  -5.6418299e-05  -4.5548013e-05  -2.5581168e-05   0.0000000e+00   0.0000000e+00  -4.8368710e-05  -2.5031868e-04  -6.7730105e-05  -1.4933532e-04   0.0000000e+00   6.3410543e-05   0.0000000e+00
   0.0000000e+00   3.5650394e-05   0.0000000e+00  -1.1170563e-05   0.0000000e+00   5.2357984e-05   3.7186763e-04   0.0000000e+00   0.0000000e+00   0.0000000e+00   0.0000000e+00   5.9039357e-05  -1.9590326e-04   3.8502586e-05   0.0000000e+00   0.0000000e+00   0.0000000e+00   0.0000000e+00   7.5977414e-05   6.6009861e-05   5.6681250e-05   6.2712685e-05   1.2521426e-04  -6.9061981e-06   4.6845474e-06   1.3808784e-04   4.9625886e-05   2.5380555e-05  -2.6698893e-04   0.0000000e+00   0.0000000e+00   8.1930119e-05  -1.3848570e-06  -1.7489065e-05  -6.3950761e-05   0.0000000e+00   3.0047830e-05   0.0000000e+00   0.0000000e+00   1.0112987e-04   0.0000000e+00   9.2628816e-05   0.0000000e+00   4.3445933e-05   3.4848146e-05   0.0000000e+00   0.0000000e+00   0.0000000e+00   0.0000000e+00   8.0066090e-05  -1.7946446e-04  -9.8076915e-07   0.0000000e+00   0.0000000e+00   0.0000000e+00   0.0000000e+00   7.7223115e-05   1.2696184e-04   1.3667286e-04  -2.8659117e-05   1.3306455e-04   7.2887560e-05   4.9222915e-06   1.8596182e-04   1.0650284e-04   7.3605099e-05  -1.6137592e-04   0.0000000e+00   0.0000000e+00   1.1799962e-04   1.5463491e-04   5.2566994e-05   3.2271792e-06   0.0000000e+00  -1.2705624e-04   0.0000000e+00   0.0000000e+00   4.8546752e-05   0.0000000e+00   6.7513938e-05   0.0000000e+00  -1.6670698e-05   1.4544555e-04   0.0000000e+00   0.0000000e+00   0.0000000e+00   0.0000000e+00   2.1088192e-04   2.4978015e-04  -5.1006001e-05   0.0000000e+00   0.0000000e+00   0.0000000e+00   0.0000000e+00  -4.3935659e-05   2.0199110e-04   1.8947651e-04  -4.1044104e-05   1.7907446e-04   2.4748836e-06  -1.6228705e-04   1.4240280e-04   4.3257596e-05   3.7767742e-05  -3.9667890e-04   0.0000000e+00   0.0000000e+00   9.4962258e-05  -4.3431423e-05  -8.4198279e-06  -2.0569298e-04   0.0000000e+00   8.4322154e-05   0.0000000e+00   0.0000000e+00  -4.6524432e-05   0.0000000e+00  -7.7380139e-05   0.0000000e+00   6.0791356e-06  -1.6483418e-04   0.0000000e+00   0.0000000e+00   0.0000000e+00   0.0000000e+00   1.5546178e-05  -2.6892991e-05  -1.3618707e-04   0.0000000e+00   0.0000000e+00   0.0000000e+00   0.0000000e+00   1.7397590e-05   1.6063872e-05   2.0288378e-06   5.0000329e-06   1.0027151e-06  -4.2474222e-05  -1.9118035e-05  -1.4249113e-05  -2.7601025e-05  -4.1996342e-05  -6.9913330e-05   0.0000000e+00   0.0000000e+00   1.9867371e-05  -1.9990716e-05  -3.0611289e-05  -4.5292686e-05   0.0000000e+00  -4.1229626e-06   0.0000000e+00   0.0000000e+00  -3.3591534e-05   0.0000000e+00  -5.8944491e-05   0.0000000e+00   3.2075986e-05   4.0672019e-05   0.0000000e+00   0.0000000e+00   0.0000000e+00   0.0000000e+00   3.8436006e-05  -2.3937604e-04  -3.3975056e-04   0.0000000e+00   0.0000000e+00   0.0000000e+00   0.0000000e+00   5.6450226e-05   3.5683864e-05   6.6199492e-05   5.1880763e-05   7.0556500e-05  -1.6664759e-05  -3.4293979e-05   1.2098398e-04   4.6027856e-05   5.6985716e-06  -2.3079699e-04   0.0000000e+00   0.0000000e+00   1.3203779e-04   3.8471389e-05  -2.1122514e-05  -5.2619277e-05   0.0000000e+00  -2.5258659e-04   0.0000000e+00   0.0000000e+00   8.2086190e-07   0.0000000e+00  -1.7393176e-05   0.0000000e+00   3.3176252e-05   2.3966740e-04   0.0000000e+00   0.0000000e+00   0.0000000e+00   0.0000000e+00   1.4825504e-05  -4.1408856e-05   1.9707944e-04   0.0000000e+00   0.0000000e+00   0.0000000e+00   0.0000000e+00   2.8460591e-06   3.7006453e-05   2.8847342e-05   4.0688446e-05   5.3782170e-05   1.0431164e-06   1.3060892e-06   3.9790994e-05   1.8486010e-05  -8.8951866e-06  -9.6736512e-05   0.0000000e+00   0.0000000e+00   4.7319811e-05   9.4714509e-06  -1.8354046e-05  -3.3371413e-05   0.0000000e+00   2.8230697e-05   0.0000000e+00   0.0000000e+00  -8.5561564e-05   0.0000000e+00  -1.1312407e-04   0.0000000e+00  -1.6407416e-05   9.2473610e-04   0.0000000e+00   0.0000000e+00   0.0000000e+00   0.0000000e+00  -5.0217514e-05   2.4415203e-05   4.6007362e-04   0.0000000e+00   0.0000000e+00   0.0000000e+00   0.0000000e+00  -6.7441990e-05   1.7384500e-05  -3.7822328e-05  -4.7144213e-05  -6.5576851e-05  -3.3839456e-05  -8.2658512e-06  -9.5029624e-05  -8.6642846e-05  -6.0571403e-05   8.6111369e-05   0.0000000e+00   0.0000000e+00  -9.3164240e-05  -1.7290698e-04  -3.0349555e-05  -4.4492050e-05   0.0000000e+00   3.7809479e-04   0.0000000e+00   0.0000000e+00  -3.3590090e-05   0.0000000e+00  -8.9477774e-05   0.0000000e+00   3.5546668e-05   1.2449300e-04   0.0000000e+00   0.0000000e+00   0.0000000e+00   0.0000000e+00   1.2103738e-05  -1.8883753e-04  -5.6531342e-06   0.0000000e+00   0.0000000e+00   0.0000000e+00   0.0000000e+00   1.9475197e-06   5.4607908e-05  -3.0936872e-05  -1.8318002e-05   1.1032940e-05  -8.0748743e-05  -5.3197613e-05  -2.2939706e-05  -3.4722170e-05  -5.0409512e-05  -3.6240438e-04   0.0000000e+00   0.0000000e+00  -2.7622149e-05  -8.4965979e-05  -5.9377072e-05  -8.3337817e-05   0.0000000e+00   1.5082679e-04   0.0000000e+00   0.0000000e+00   1.0162019e-04   0.0000000e+00   5.9278107e-05   0.0000000e+00   1.4847326e-04   3.1724893e-04   0.0000000e+00   0.0000000e+00   0.0000000e+00   0.0000000e+00   1.4572140e-04   3.4987385e-05   5.8368096e-06   0.0000000e+00   0.0000000e+00   0.0000000e+00   0.0000000e+00   1.7971033e-04   1.7764147e-04   9.1187187e-05   8.5440890e-05   1.3349070e-04   7.4583698e-05   9.3425294e-05   8.4316828e-05   1.1849506e-04   7.2854661e-05  -1.2981912e-04   0.0000000e+00   0.0000000e+00   1.0096379e-04   5.9827249e-05   3.0707267e-05   1.2485087e-04   0.0000000e+00  -1.4818033e-05   0.0000000e+00   0.0000000e+00   4.8269277e-06   0.0000000e+00  -3.1112015e-05   0.0000000e+00   6.3917768e-06  -2.6703751e-04   0.0000000e+00   0.0000000e+00   0.0000000e+00   0.0000000e+00  -1.3539349e-05  -1.4285164e-04  -1.9654387e-04   0.0000000e+00   0.0000000e+00   0.0000000e+00   0.0000000e+00  -1.0175985e-06   1.1668643e-05   3.0942766e-06   1.2599523e-05   6.0235283e-05   1.6465440e-05  -2.0740806e-06   7.8969183e-05   3.6935023e-05   3.2226374e-05  -6.0653813e-05   0.0000000e+00   0.0000000e+00   5.6584143e-05   5.3761791e-05  -2.0668938e-05  -2.3642292e-05   0.0000000e+00  -1.2851873e-04   0.0000000e+00   0.0000000e+00   2.8176637e-05   0.0000000e+00  -7.8758312e-06   0.0000000e+00   2.8632609e-05   1.4894470e-04   0.0000000e+00   0.0000000e+00   0.0000000e+00   0.0000000e+00   2.9401985e-05   1.3526982e-04   1.8035859e-04   0.0000000e+00   0.0000000e+00   0.0000000e+00   0.0000000e+00   5.2190844e-06  -3.2274937e-05  -9.6771267e-07   2.4292427e-05  -9.8764840e-06  -1.5223764e-05  -3.7016342e-05   1.3193274e-05  -6.1439622e-05  -4.2506255e-05  -3.2872456e-05   0.0000000e+00   0.0000000e+00  -5.3867624e-05  -2.5652563e-04  -6.9138145e-05  -1.6348231e-04   0.0000000e+00   6.4998961e-05   0.0000000e+00
   0.0000000e+00   3.3011509e-05   0.0000000e+00  -2.0049697e-05   0.0000000e+00   5.6535587e-05   4.1584725e-04   0.0000000e+00   0.0000000e+00   0.0000000e+00   0.0000000e+00   6.1389185e-05  -2.0309989e-04   5.0567490e-05   0.0000000e+00   0.0000000e+00   0.0000000e+00   0.0000000e+00   7.4420674e-05   6.9163172e-05   5.8616100e-05   6.3861071e-05   1.3192988e-04  -1.0342751e-05   2.3435488e-06   1.4368442e-04   4.9068695e-05   2.2999849e-05  -2.8756962e-04   0.0000000e+00   0.0000000e+00   8.6440794e-05  -4.5060358e-06  -2.0359720e-05  -7.0777028e-05   0.0000000e+00   4.3257613e-05   0.0000000e+00   0.0000000e+00   1.3662428e-04   0.0000000e+00   1.1557598e-04   0.0000000e+00   4.4653394e-05  -1.0938241e-05   0.0000000e+00   0.0000000e+00   0.0000000e+00   0.0000000e+00   9.2642596e-05  -1.6693821e-04  -4.4188773e-05   0.0000000e+00   0.0000000e+00   0.0000000e+00   0.0000000e+00   8.3962689e-05   1.4486475e-04   1.4941606e-04  -5.3518516e-05   1.4452707e-04   9.1003101e-05   1.0524656e-05   2.0115766e-04   1.1300916e-04   9.1661239e-05  -9.5472136e-05   0.0000000e+00   0.0000000e+00   1.2629250e-04   1.6504024e-04   5.9053305e-05   1.4091398e-05   0.0000000e+00  -1.2944718e-04   0.0000000e+00   0.0000000e+00   2.9462148e-05   0.0000000e+00   5.3830030e-05   0.0000000e+00  -3.1151495e-05   1.6607446e-04   0.0000000e+00   0.0000000e+00   0.0000000e+00   0.0000000e+00   1.9063954e-04   2.7553591e-04  -4.8487180e-05   0.0000000e+00   0.0000000e+00   0.0000000e+00   0.0000000e+00  -7.7955847e-05   2.0488149e-04   1.8412454e-04  -6.5985557e-05   1.6183560e-04  -1.8615053e-05  -2.0428283e-04   1.0681761e-04   9.5764020e-06   1.8820843e-05  -4.2634940e-04   0.0000000e+00   0.0000000e+00   5.3397535e-05  -7.1233177e-05  -3.0028942e-05  -2.4366252e-04   0.0000000e+00   8.8350954e-05   0.0000000e+00   0.0000000e+00  -5.4691002e-05   0.0000000e+00  -8.5626169e-05   0.0000000e+00   2.2334684e-06  -1.9417139e-04   0.0000000e+00   0.0000000e+00   0.0000000e+00   0.0000000e+00   1.1774588e-05  -2.4574526e-05  -1.4248935e-04   0.0000000e+00   0.0000000e+00   0.0000000e+00   0.0000000e+00   1.2739565e-05   1.1501308e-05  -7.7889677e-07   2.7586619e-06  -6.6080032e-06  -4.7221335e-05  -2.0029546e-05  -2.3090493e-05  -3.4019615e-05  -4.7809253e-05  -7.0746950e-05   0.0000000e+00   0.0000000e+00   1.4908731e-05  -2.1734612e-05  -3.1583080e-05  -4.3837549e-05   0.0000000e+00  -2.2271359e-05   0.0000000e+00   0.0000000e+00  -3.0569520e-05   0.0000000e+00  -6.4645703e-05   0.0000000e+00   2.8935626e-05   1.6193608e-05   0.0000000e+00   0.0000000e+00   0.0000000e+00   0.0000000e+00   3.6468841e-05  -2.3437049e-04  -3.4680843e-04   0.0000000e+00   0.0000000e+00   0.0000000e+00   0.0000000e+00   4.8958218e-05   3.4677990e-05   6.5830634e-05   4.5232291e-05   6.3923784e-05  -1.9644715e-05  -4.0299711e-05   1.1955140e-04   4.6352073e-05   3.7374091e-06  -2.3252435e-04   0.0000000e+00   0.0000000e+00   1.3564150e-04   4.1641376e-05  -2.2284529e-05  -5.8419406e-05   0.0000000e+00  -2.6975250e-04   0.0000000e+00   0.0000000e+00  -3.2208371e-06   0.0000000e+00  -2.1002148e-05   0.0000000e+00   3.2668237e-05   2.4019922e-04   0.0000000e+00   0.0000000e+00   0.0000000e+00   0.0000000e+00   9.7806608e-06  -3.9638036e-05   2.1090565e-04   0.0000000e+00   0.0000000e+00   0.0000000e+00   0.0000000e+00  -3.3609026e-06   3.5794255e-05   2.7976360e-05   3.6494519e-05   5.1809985e-05  -3.3755656e-06  -4.3012438e-06   3.4535265e-05   1.3825048e-05  -1.5701726e-05  -1.1208928e-04   0.0000000e+00   0.0000000e+00   4.5745195e-05   6.0351591e-06  -2.2669400e-05  -4.1057592e-05   0.0000000e+00   3.0914322e-05   0.0000000e+00   0.0000000e+00  -1.0467443e-04   0.0000000e+00  -1.2280415e-04   0.0000000e+00  -2.8190699e-05   9.3365365e-04   0.0000000e+00   0.0000000e+00   0.0000000e+00   0.0000000e+00  -7.5232509e-05   3.2767632e-05   4.9881353e-04   0.0000000e+00   0.0000000e+00   0.0000000e+00   0.0000000e+00  -9.2546090e-05   3.9814578e-06  -5.2677068e-05  -5.6619265e-05  -9.1406379e-05  -4.4522885e-05  -1.8589871e-05  -1.2759543e-04  -1.0576206e-04  -7.4773153e-05   1.0226689e-04   0.0000000e+00   0.0000000e+00  -1.1744744e-04  -1.9414145e-04  -3.0903067e-05  -5.1451462e-05   0.0000000e+00   3.7979468e-04   0.0000000e+00   0.0000000e+00  -4.2824135e-05   0.0000000e+00  -9.6034176e-05   0.0000000e+00   3.1578236e-05   8.4740371e-05   0.0000000e+00   0.0000000e+00   0.0000000e+00   0.0000000e+00   2.0941925e-06  -2.0233699e-04  -3.1631606e-05   0.0000000e+00   0.0000000e+00   0.0000000e+00   0.0000000e+00  -1.5136790e-05   4.8260067e-05  -4.4279029e-05  -3.0332285e-05   3.9740984e-07  -8.4302311e-05  -5.9543629e-05  -4.1595996e-05  -4.6291361e-05  -5.7370737e-05  -3.2816721e-04   0.0000000e+00   0.0000000e+00  -4.2431516e-05  -9.4509886e-05  -6.2185659e-05  -7.7651925e-05   0.0000000e+00   1.5471652e-04   0.0000000e+00   0.0000000e+00   1.0160449e-04   0.0000000e+00   6.0098195e-05   0.0000000e+00   1.5233379e-04   3.1352561e-04   0.0000000e+00   0.0000000e+00   0.0000000e+00   0.0000000e+00   1.4904741e-04   4.7090841e-05  -4.7043723e-06   0.0000000e+00   0.0000000e+00   0.0000000e+00   0.0000000e+00   1.8734135e-04   1.8175930e-04   9.3983503e-05   8.1904689e-05   1.3500669e-04   7.8620108e-05   9.3604268e-05   8.0636991e-05   1.2035945e-04   7.2600512e-05  -1.2326135e-04   0.0000000e+00   0.0000000e+00   1.0031902e-04   5.9870512e-05   4.1905024e-05   1.3808866e-04   0.0000000e+00  -2.3440523e-05   0.0000000e+00   0.0000000e+00   6.4409941e-06   0.0000000e+00  -3.6513828e-05   0.0000000e+00   4.6311442e-06  -3.2590476e-04   0.0000000e+00   0.0000000e+00   0.0000000e+00   0.0000000e+00  -1.3586675e-05  -1.6273662e-04  -2.4080653e-04   0.0000000e+00   0.0000000e+00   0.0000000e+00   0.0000000e+00  -6.8163706e-07   1.4108864e-05   2.5199866e-06   1.0215391e-05   6.3010259e-05   1.7969200e-05  -7.8535538e-06   8.3081548e-05   3.9309333e-05   3.4133176e-05  -5.9727497e-05   0.0000000e+00   0.0000000e+00   6.2583570e-05   6.0331241e-05  -1.8140304e-05  -2.1062929e-05   0.0000000e+00  -1.5125979e-04   0.0000000e+00   0.0000000e+00   2.8087503e-05   0.0000000e+00  -2.5062473e-06   0.0000000e+00   3.2997450e-05   1.6702711e-04   0.0000000e+00   0.0000000e+00   0.0000000e+00   0.0000000e+00   3.6239006e-05   1.4121176e-04   1.9408759e-04   0.0000000e+00   0.0000000e+00   0.0000000e+00   0.0000000e+00   4.3585751e-06  -3.7652193e-05   4.2518210e-07   2.5488791e-05  -6.6154289e-06  -1.4676208e-05  -3.5003299e-05   1.8246878e-05  -6.5959197e-05  -3.8124298e-05  -3.9511733e-05   0.0000000e+00   0.0000000e+00  -5.8350855e-05  -2.5627878e-04  -7.0246329e-05  -1.7639817e-04   0.0000000e+00   6.5761751e-05   0.0000000e+00
   0.0000000e+00   2.9232264e-05   0.0000000e+00  -2.9534147e-05   0.0000000e+00   5.9869987e-05   4.5412926e-04   0.0000000e+00   0.0000000e+00   0.0000000e+00   0.0000000e+00   6.2520578e-05  -2.0664961e-04   6.1955840e-05   0.0000000e+00   0.0000000e+00   0.0000000e+00   0.0000000e+00   7.0907725e-05   7.1102865e-05   5.9492229e-05   6.3778601e-05   1.3631868e-04  -1.3913088e-05  -2.9961763e-07   1.4660111e-04   4.7373154e-05   1.9826914e-05  -3.0346486e-04   0.0000000e+00   0.0000000e+00   8.9442389e-05  -7.8269459e-06  -2.3082537e-05  -7.6839662e-05   0.0000000e+00   5.6972452e-05   0.0000000e+00   0.0000000e+00   1.7707233e-04   0.0000000e+00   1.4259563e-04   0.0000000e+00   4.7561301e-05  -6.8380620e-05   0.0000000e+00   0.0000000e+00   0.0000000e+00   0.0000000e+00   1.0945263e-04  -1.4520447e-04  -9.7229463e-05   0.0000000e+00   0.0000000e+00   0.0000000e+00   0.0000000e+00   9.1806284e-05   1.6287294e-04   1.6232850e-04  -7.7203405e-05   1.5494953e-04   1.1332324e-04   2.0637163e-05   2.1549722e-04   1.2035935e-04   1.1292740e-04  -7.8903267e-06   0.0000000e+00   0.0000000e+00   1.3251572e-04   1.7473725e-04   6.7148004e-05   3.0554158e-05   0.0000000e+00  -1.3145128e-04   0.0000000e+00   0.0000000e+00   7.0317825e-06   0.0000000e+00   3.5654732e-05   0.0000000e+00  -4.7041764e-05   1.8478837e-04   0.0000000e+00   0.0000000e+00   0.0000000e+00   0.0000000e+00   1.6280376e-04   2.9934040e-04  -4.5459393e-05   0.0000000e+00   0.0000000e+00   0.0000000e+00   0.0000000e+00  -1.1563418e-04   2.0357531e-04   1.7388307e-04  -9.3150787e-05   1.3847995e-04  -4.2595435e-05  -2.4742071e-04   6.3815678e-05  -3.0303122e-05  -4.1955864e-06  -4.5427848e-04   0.0000000e+00   0.0000000e+00   5.9591354e-06  -1.0196359e-04  -5.5430634e-05  -2.8403200e-04   0.0000000e+00   9.0819250e-05   0.0000000e+00   0.0000000e+00  -6.2833046e-05   0.0000000e+00  -9.2891363e-05   0.0000000e+00  -2.4001752e-06  -2.2241321e-04   0.0000000e+00   0.0000000e+00   0.0000000e+00   0.0000000e+00   7.0157916e-06  -2.1818215e-05  -1.4602276e-04   0.0000000e+00   0.0000000e+00   0.0000000e+00   0.0000000e+00   7.2956358e-06   6.1259571e-06  -3.9673601e-06  -6.8193207e-09  -1.4993163e-05  -5.1735368e-05  -2.0484310e-05  -3.2377020e-05  -4.0111388e-05  -5.3198198e-05  -7.1263972e-05   0.0000000e+00   0.0000000e+00   9.3640742e-06  -2.2790963e-05  -3.2109501e-05  -4.1318463e-05   0.0000000e+00  -4.3147865e-05   0.0000000e+00   0.0000000e+00  -2.5157602e-05   0.0000000e+00  -6.9876784e-05   0.0000000e+00   2.5255810e-05  -1.4082111e-05   0.0000000e+00   0.0000000e+00   0.0000000e+00   0.0000000e+00   3.5020101e-05  -2.2080419e-04  -3.5016803e-04   0.0000000e+00   0.0000000e+00   0.0000000e+00   0.0000000e+00   4.0176198e-05   3.2449996e-05   6.3779920e-05   3.6931691e-05   5.4813740e-05  -2.1639813e-05  -4.5563344e-05   1.1390538e-04   4.5082230e-05   1.4955295e-06  -2.2915492e-04   0.0000000e+00   0.0000000e+00   1.3622748e-04   4.3668583e-05  -2.3185809e-05  -6.3085509e-05   0.0000000e+00  -2.8593382e-04   0.0000000e+00   0.0000000e+00  -7.5440118e-06   0.0000000e+00  -2.4430644e-05   0.0000000e+00   3.1613294e-05   2.3743767e-04   0.0000000e+00   0.0000000e+00   0.0000000e+00   0.0000000e+00   4.2677300e-06  -3.6811867e-05   2.2358410e-04   0.0000000e+00   0.0000000e+00   0.0000000e+00   0.0000000e+00  -1.0046453e-05   3.3837403e-05   2.6493990e-05   3.1269193e-05   4.8633515e-05  -7.9839007e-06  -1.0035414e-05   2.8046735e-05   8.5263228e-06  -2.2763878e-05  -1.2555201e-04   0.0000000e+00   0.0000000e+00   4.3181105e-05   2.2227128e-06  -2.6484680e-05  -4.8034592e-05   0.0000000e+00   3.2861328e-05   0.0000000e+00   0.0000000e+00  -1.2395635e-04   0.0000000e+00  -1.3164453e-04   0.0000000e+00  -4.1092837e-05   9.2697376e-04   0.0000000e+00   0.0000000e+00   0.0000000e+00   0.0000000e+00  -1.0217169e-04   4.1844443e-05   5.3369648e-04   0.0000000e+00   0.0000000e+00   0.0000000e+00   0.0000000e+00  -1.1926112e-04  -1.1554387e-05  -6.8507464e-05  -6.6260604e-05  -1.1894406e-04  -5.6475521e-05  -3.0965018e-05  -1.6166432e-04  -1.2530550e-04  -8.9574591e-05   1.1554740e-04   0.0000000e+00   0.0000000e+00  -1.4284040e-04  -2.1425927e-04  -3.1880829e-05  -5.9567712e-05   0.0000000e+00   3.7743345e-04   0.0000000e+00   0.0000000e+00  -5.2820473e-05   0.0000000e+00  -1.0104477e-04   0.0000000e+00   2.5993212e-05   2.9069243e-05   0.0000000e+00   0.0000000e+00   0.0000000e+00   0.0000000e+00  -9.9869978e-06  -2.1436497e-04  -7.0074992e-05   0.0000000e+00   0.0000000e+00   0.0000000e+00   0.0000000e+00  -3.4095486e-05   4.0072400e-05  -5.8664859e-05  -4.2731682e-05  -1.2481552e-05  -8.6586294e-05  -6.5282308e-05  -6.2203032e-05  -5.7898552e-05  -6.4047007e-05  -2.8522782e-04   0.0000000e+00   0.0000000e+00  -5.8742192e-05  -1.0359647e-04  -6.3842086e-05  -6.9956637e-05   0.0000000e+00   1.5418595e-04   0.0000000e+00   0.0000000e+00   1.0022299e-04   0.0000000e+00   6.0360690e-05   0.0000000e+00   1.5377196e-04   2.9893651e-04   0.0000000e+00   0.0000000e+00   0.0000000e+00   0.0000000e+00   1.4997067e-04   5.8642256e-05  -1.7810074e-05   0.0000000e+00   0.0000000e+00   0.0000000e+00   0.0000000e+00   1.9383096e-04   1.8328601e-04   9.5978160e-05   7.6064792e-05   1.3368141e-04   8.1056862e-05   9.2537787e-05   7.5229237e-05   1.2027828e-04   7.1434387e-05  -1.1941225e-04   0.0000000e+00   0.0000000e+00   9.8401953e-05   5.8921800e-05   5.3201691e-05   1.5082182e-04   0.0000000e+00  -3.8199737e-05   0.0000000e+00   0.0000000e+00   8.9587496e-06   0.0000000e+00  -4.1515993e-05   0.0000000e+00   2.6356401e-06  -3.8408856e-04   0.0000000e+00   0.0000000e+00   0.0000000e+00   0.0000000e+00  -1.2871680e-05  -1.8106400e-04  -2.8595038e-04   0.0000000e+00   0.0000000e+00   0.0000000e+00   0.0000000e+00   1.1302939e-07   1.6943112e-05   1.9399341e-06   7.5846828e-06   6.5276096e-05   1.9741905e-05  -1.3054873e-05   8.6585271e-05   4.1984932e-05   3.6507687e-05  -5.4718883e-05   0.0000000e+00   0.0000000e+00   6.8611723e-05   6.6455661e-05  -1.4443315e-05  -1.6381794e-05   0.0000000e+00  -1.7628530e-04   0.0000000e+00   0.0000000e+00   2.7692770e-05   0.0000000e+00   3.2658209e-06   0.0000000e+00   3.7512756e-05   1.8427515e-04   0.0000000e+00   0.0000000e+00   0.0000000e+00   0.0000000e+00   4.3394207e-05   1.4443638e-04   2.0617973e-04   0.0000000e+00   0.0000000e+00   0.0000000e+00   0.0000000e+00   3.9950064e-06  -4.2668936e-05   2.0859376e-06   2.5139883e-05  -2.0318157e-06  -1.3669077e-05  -3.1705554e-05   2.3632408e-05  -6.9937794e-05  -3.2718473e-05  -4.5154662e-05   0.0000000e+00   0.0000000e+00  -6.1507933e-05  -2.4991596e-04  -7.1317565e-05  -1.8791015e-04   0.0000000e+00   6.5586884e-05   0.0000000e+00
   0.0000000e+00   2.4388330e-05   0.0000000e+00  -3.9371642e-05   0.0000000e+00   6.2247856e-05   4.8548823e-04   0.0000000e+00   0.0000000e+00   0.0000000e+00   0.0000000e+00   6.2367717e-05  -2.0651768e-04   7.2236869e-05   0.0000000e+00   0.0000000e+00   0.0000000e+00   0.0000000e+00   6.5523051e-05   7.1772671e-05   5.9290613e-05   6.2476100e-05   1.3822882e-04  -1.7539457e-05  -3.1831379e-06   1.4674453e-04   4.4595939e-05   1.5930676e-05  -3.1445953e-04   0.0000000e+00   0.0000000e+00   9.0826760e-05  -1.1244849e-05  -2.5600968e-05  -8.2013803e-05   0.0000000e+00   7.0747922e-05   0.0000000e+00   0.0000000e+00   2.2173242e-04   0.0000000e+00   1.7343127e-04   0.0000000e+00   5.2789318e-05  -1.3602433e-04   0.0000000e+00   0.0000000e+00   0.0000000e+00   0.0000000e+00   1.3094066e-04  -1.1497443e-04  -1.5880692e-04   0.0000000e+00   0.0000000e+00   0.0000000e+00   0.0000000e+00   1.0082618e-04   1.8060152e-04   1.7552815e-04  -9.8188999e-05   1.6424843e-04   1.4000140e-04   3.5398970e-05   2.2901817e-04   1.2883491e-04   1.3716432e-04   9.9488821e-05   0.0000000e+00   0.0000000e+00   1.3637130e-04   1.8384224e-04   7.6861260e-05   5.2656589e-05   0.0000000e+00  -1.3349031e-04   0.0000000e+00   0.0000000e+00  -1.7925683e-05   0.0000000e+00   1.3580568e-05   0.0000000e+00  -6.3937116e-05   2.0170750e-04   0.0000000e+00   0.0000000e+00   0.0000000e+00   0.0000000e+00   1.2836933e-04   3.2099976e-04  -4.1862043e-05   0.0000000e+00   0.0000000e+00   0.0000000e+00   0.0000000e+00  -1.5566260e-04   1.9826001e-04   1.5911415e-04  -1.2181753e-04   1.0973729e-04  -6.8718344e-05  -2.9054752e-04   1.4818594e-05  -7.5204802e-05  -3.0583346e-05  -4.8042279e-04   0.0000000e+00   0.0000000e+00  -4.5496000e-05  -1.3484114e-04  -8.4217073e-05  -3.2609539e-04   0.0000000e+00   9.2649459e-05   0.0000000e+00   0.0000000e+00  -7.0741959e-05   0.0000000e+00  -9.8933886e-05   0.0000000e+00  -7.7211922e-06  -2.4905069e-04   0.0000000e+00   0.0000000e+00   0.0000000e+00   0.0000000e+00   1.4329460e-06  -1.8416012e-05  -1.4680737e-04   0.0000000e+00   0.0000000e+00   0.0000000e+00   0.0000000e+00   1.2915631e-06   1.6327013e-07  -7.4151474e-06  -3.2136326e-06  -2.3884581e-05  -5.5880769e-05  -2.0406841e-05  -4.1805916e-05  -4.5595323e-05  -5.7972685e-05  -7.1322211e-05   0.0000000e+00   0.0000000e+00   3.5257046e-06  -2.2982239e-05  -3.2159610e-05  -3.7745981e-05   0.0000000e+00  -6.6260399e-05   0.0000000e+00   0.0000000e+00  -1.7411333e-05   0.0000000e+00  -7.4614037e-05   0.0000000e+00   2.1365316e-05  -4.8402198e-05   0.0000000e+00   0.0000000e+00   0.0000000e+00   0.0000000e+00   3.4515617e-05  -1.9956221e-04  -3.5016783e-04   0.0000000e+00   0.0000000e+00   0.0000000e+00   0.0000000e+00   3.0597723e-05   2.9068241e-05   6.0173396e-05   2.7548086e-05   4.3522431e-05  -2.2487120e-05  -4.9945553e-05   1.0405301e-04   4.2095481e-05  -1.0501629e-06  -2.2179590e-04   0.0000000e+00   0.0000000e+00   1.3367936e-04   4.4335734e-05  -2.3935881e-05  -6.6519980e-05   0.0000000e+00  -3.0129945e-04   0.0000000e+00   0.0000000e+00  -1.1959074e-05   0.0000000e+00  -2.7456561e-05   0.0000000e+00   3.0191063e-05   2.3177889e-04   0.0000000e+00   0.0000000e+00   0.0000000e+00   0.0000000e+00  -1.3499261e-06  -3.3011938e-05   2.3503722e-04   0.0000000e+00   0.0000000e+00   0.0000000e+00   0.0000000e+00  -1.6840652e-05   3.1323335e-05   2.4529434e-05   2.5360101e-05   4.4480059e-05  -1.2493006e-05  -1.5568655e-05   2.0682543e-05   2.8714458e-06  -2.9740004e-05  -1.3610885e-04   0.0000000e+00   0.0000000e+00   3.9860659e-05  -1.7567780e-06  -2.9586641e-05  -5.3894029e-05   0.0000000e+00   3.4052790e-05   0.0000000e+00   0.0000000e+00  -1.4290457e-04   0.0000000e+00  -1.3950656e-04   0.0000000e+00  -5.4815187e-05   9.0616724e-04   0.0000000e+00   0.0000000e+00   0.0000000e+00   0.0000000e+00  -1.3030764e-04   5.1737743e-05   5.6411200e-04   0.0000000e+00   0.0000000e+00   0.0000000e+00   0.0000000e+00  -1.4689977e-04  -2.8828943e-05  -8.4938571e-05  -7.5873340e-05  -1.4739835e-04  -6.9400236e-05  -4.5148761e-05  -1.9622570e-04  -1.4478493e-04  -1.0457722e-04   1.2585149e-04   0.0000000e+00   0.0000000e+00  -1.6854739e-04  -2.3285572e-04  -3.3321132e-05  -6.8685322e-05   0.0000000e+00   3.7187572e-04   0.0000000e+00   0.0000000e+00  -6.3482519e-05   0.0000000e+00  -1.0452500e-04   0.0000000e+00   1.8799611e-05  -4.0365464e-05   0.0000000e+00   0.0000000e+00   0.0000000e+00   0.0000000e+00  -2.4030472e-05  -2.2502541e-04  -1.2038375e-04   0.0000000e+00   0.0000000e+00   0.0000000e+00   0.0000000e+00  -5.4497536e-05   3.0219924e-05  -7.3791764e-05  -5.5082382e-05  -2.7441926e-05  -8.7816175e-05  -7.0361458e-05  -8.4333780e-05  -6.9219678e-05  -7.0420619e-05  -2.3650292e-04   0.0000000e+00   0.0000000e+00  -7.6278466e-05  -1.1209617e-04  -6.4343789e-05  -6.0794387e-05   0.0000000e+00   1.4972920e-04   0.0000000e+00   0.0000000e+00   9.7758405e-05   0.0000000e+00   6.0181097e-05   0.0000000e+00   1.5296226e-04   2.7530905e-04   0.0000000e+00   0.0000000e+00   0.0000000e+00   0.0000000e+00   1.4852289e-04   6.8931720e-05  -3.2575990e-05   0.0000000e+00   0.0000000e+00   0.0000000e+00   0.0000000e+00   1.9931401e-04   1.8228864e-04   9.7302356e-05   6.8260125e-05   1.2951344e-04   8.1731365e-05   9.0574603e-05   6.8428167e-05   1.1873885e-04   6.9544551e-05  -1.2114495e-04   0.0000000e+00   0.0000000e+00   9.5419262e-05   5.7028938e-05   6.4226920e-05   1.6290037e-04   0.0000000e+00  -6.0443140e-05   0.0000000e+00   0.0000000e+00   1.2465205e-05   0.0000000e+00  -4.5859537e-05   0.0000000e+00   6.4896622e-07  -4.3984140e-04   0.0000000e+00   0.0000000e+00   0.0000000e+00   0.0000000e+00  -1.1161976e-05  -1.9725106e-04  -3.3089465e-04   0.0000000e+00   0.0000000e+00   0.0000000e+00   0.0000000e+00   1.5871184e-06   2.0251942e-05   1.5108427e-06   5.1681018e-06   6.7233134e-05   2.1947197e-05  -1.7202417e-05   8.9723966e-05   4.5140542e-05   3.9481963e-05  -4.6018041e-05   0.0000000e+00   0.0000000e+00   7.4704942e-05   7.2021094e-05  -9.7496833e-06  -9.7667166e-06   0.0000000e+00  -2.0317750e-04   0.0000000e+00   0.0000000e+00   2.7105982e-05   0.0000000e+00   9.1338588e-06   0.0000000e+00   4.2108597e-05   2.0002981e-04   0.0000000e+00   0.0000000e+00   0.0000000e+00   0.0000000e+00   5.0683569e-05   1.4477877e-04   2.1642353e-04   0.0000000e+00   0.0000000e+00   0.0000000e+00   0.0000000e+00   4.3984874e-06  -4.7033217e-05   4.0437959e-06   2.2986596e-05   3.6873998e-06  -1.2266456e-05  -2.7256751e-05   2.9089027e-05  -7.3369779e-05  -2.6662903e-05  -4.9552787e-05   0.0000000e+00   0.0000000e+00  -6.3089791e-05  -2.3808908e-04  -7.2565548e-05  -1.9786906e-04   0.0000000e+00   6.4366608e-05   0.0000000e+00
   0.0000000e+00   1.8587549e-05   0.0000000e+00  -4.9308821e-05   0.0000000e+00   6.3587275e-05   5.0903268e-04   0.0000000e+00   0.0000000e+00   0.0000000e+00   0.0000000e+00   6.0904549e-05  -2.0276893e-04   8.1066213e-05   0.0000000e+00   0.0000000e+00   0.0000000e+00   0.0000000e+00   5.8404720e-05   7.1153742e-05   5.8021513e-05   5.9996734e-05   1.3758704e-04  -2.1152942e-05  -6.2491797e-06   1.4410456e-04   4.0815999e-05   1.1391989e-05  -3.2058324e-04   0.0000000e+00   0.0000000e+00   9.0532186e-05  -1.4664967e-05  -2.7873278e-05  -8.6216986e-05   0.0000000e+00   8.4145211e-05   0.0000000e+00   0.0000000e+00   2.6961460e-04   0.0000000e+00   2.0758375e-04   0.0000000e+00   6.0844400e-05  -2.1173687e-04   0.0000000e+00   0.0000000e+00   0.0000000e+00   0.0000000e+00   1.5727926e-04  -7.7527236e-05  -2.2713222e-04   0.0000000e+00   0.0000000e+00   0.0000000e+00   0.0000000e+00   1.1093195e-04   1.9762538e-04   1.8908736e-04  -1.1519993e-04   1.7239158e-04   1.7097981e-04   5.4595818e-05   2.4177691e-04   1.3861063e-04   1.6394678e-04   2.2355518e-04   0.0000000e+00   0.0000000e+00   1.3763926e-04   1.9246263e-04   8.8071251e-05   8.0069366e-05   0.0000000e+00  -1.3585524e-04   0.0000000e+00   0.0000000e+00  -4.4415153e-05   0.0000000e+00  -1.1505443e-05   0.0000000e+00  -8.1376826e-05   2.1727622e-04   0.0000000e+00   0.0000000e+00   0.0000000e+00   0.0000000e+00   8.8650547e-05   3.4047352e-04  -3.7516812e-05   0.0000000e+00   0.0000000e+00   0.0000000e+00   0.0000000e+00  -1.9655755e-04   1.8929376e-04   1.4035729e-04  -1.5118275e-04   7.6521063e-05  -9.6103377e-05  -3.3250646e-04  -3.8467173e-05  -1.2363973e-04  -5.9410981e-05  -5.0447445e-04   0.0000000e+00   0.0000000e+00  -9.8916692e-05  -1.6893445e-04  -1.1576504e-04  -3.6890936e-04   0.0000000e+00   9.5024564e-05   0.0000000e+00   0.0000000e+00  -7.8217223e-05   0.0000000e+00  -1.0354297e-04   0.0000000e+00  -1.3598551e-05  -2.7378453e-04   0.0000000e+00   0.0000000e+00   0.0000000e+00   0.0000000e+00  -4.7647264e-06  -1.4140964e-05  -1.4503388e-04   0.0000000e+00   0.0000000e+00   0.0000000e+00   0.0000000e+00  -5.0194979e-06  -6.1307493e-06  -1.0982202e-05  -6.7455511e-06  -3.2991037e-05  -5.9516442e-05  -1.9731490e-05  -5.1067308e-05  -5.0213748e-05  -6.1956621e-05  -7.0643389e-05   0.0000000e+00   0.0000000e+00  -2.2996166e-06  -2.2151600e-05  -3.1701189e-05  -3.3136883e-05   0.0000000e+00  -9.1057911e-05   0.0000000e+00   0.0000000e+00  -7.5360989e-06   0.0000000e+00  -7.8879953e-05   0.0000000e+00   1.7593353e-05  -8.4643396e-05   0.0000000e+00   0.0000000e+00   0.0000000e+00   0.0000000e+00   3.5297165e-05  -1.7224719e-04  -3.4708703e-04   0.0000000e+00   0.0000000e+00   0.0000000e+00   0.0000000e+00   2.0717971e-05   2.4649840e-05   5.5196766e-05   1.7726514e-05   3.0421256e-05  -2.2124915e-05  -5.3401812e-05   9.0195937e-05   3.7323698e-05  -3.9476774e-06  -2.1192794e-04   0.0000000e+00   0.0000000e+00   1.2797723e-04   4.3481703e-05  -2.4674174e-05  -6.8734773e-05   0.0000000e+00  -3.1599483e-04   0.0000000e+00   0.0000000e+00  -1.6278501e-05   0.0000000e+00  -2.9863770e-05   0.0000000e+00   2.8600405e-05   2.2359969e-04   0.0000000e+00   0.0000000e+00   0.0000000e+00   0.0000000e+00  -6.7037667e-06  -2.8345616e-05   2.4514812e-04   0.0000000e+00   0.0000000e+00   0.0000000e+00   0.0000000e+00  -2.3351956e-05   2.8470057e-05   2.2237117e-05   1.9141567e-05   3.9614959e-05  -1.6619415e-05  -2.0600113e-05   1.2837152e-05  -2.8499795e-06  -3.6298511e-05  -1.4291150e-04   0.0000000e+00   0.0000000e+00   3.6054393e-05  -5.6880303e-06  -3.1812000e-05  -5.8303840e-05   0.0000000e+00   3.4494899e-05   0.0000000e+00   0.0000000e+00  -1.6104127e-04   0.0000000e+00  -1.4627388e-04   0.0000000e+00  -6.9029980e-05   8.7335521e-04   0.0000000e+00   0.0000000e+00   0.0000000e+00   0.0000000e+00  -1.5887312e-04   6.2502249e-05   5.8975982e-04   0.0000000e+00   0.0000000e+00   0.0000000e+00   0.0000000e+00  -1.7473789e-04  -4.7401334e-05  -1.0158316e-04  -8.5258049e-05  -1.7593626e-04  -8.2953728e-05  -6.0809385e-05  -2.3026243e-04  -1.6372007e-04  -1.1938190e-04   1.3310500e-04   0.0000000e+00   0.0000000e+00  -1.9372915e-04  -2.4960717e-04  -3.5213266e-05  -7.8588335e-05   0.0000000e+00   3.6395241e-04   0.0000000e+00   0.0000000e+00  -7.4680765e-05   0.0000000e+00  -1.0656235e-04   0.0000000e+00   1.0049522e-05  -1.2034610e-04   0.0000000e+00   0.0000000e+00   0.0000000e+00   0.0000000e+00  -3.9853814e-05  -2.3443271e-04  -1.8092829e-04   0.0000000e+00   0.0000000e+00   0.0000000e+00   0.0000000e+00  -7.5890619e-05   1.8899513e-05  -8.9344698e-05  -6.6985119e-05  -4.4233761e-05  -8.8263422e-05  -7.4770227e-05  -1.0751440e-04  -7.9972768e-05  -7.6502659e-05  -1.8504902e-04   0.0000000e+00   0.0000000e+00  -9.4727732e-05  -1.1989938e-04  -6.3735791e-05  -5.0767827e-05   0.0000000e+00   1.4216549e-04   0.0000000e+00   0.0000000e+00   9.4487956e-05   0.0000000e+00   5.9633334e-05   0.0000000e+00   1.5015287e-04   2.4540342e-04   0.0000000e+00   0.0000000e+00   0.0000000e+00   0.0000000e+00   1.4477694e-04   7.7271280e-05  -4.7787529e-05   0.0000000e+00   0.0000000e+00   0.0000000e+00   0.0000000e+00   2.0386559e-04   1.7886499e-04   9.8046051e-05   5.8919734e-05   1.2258870e-04   8.0485234e-05   8.8053164e-05   6.0612886e-05   1.1633130e-04   6.7108342e-05  -1.3143668e-04   0.0000000e+00   0.0000000e+00   9.1553385e-05   5.4275228e-05   7.4598608e-05   1.7408439e-04   0.0000000e+00  -9.1180649e-05   0.0000000e+00   0.0000000e+00   1.6972104e-05   0.0000000e+00  -4.9318527e-05   0.0000000e+00  -1.0659797e-06  -4.9165884e-04   0.0000000e+00   0.0000000e+00   0.0000000e+00   0.0000000e+00  -8.2512540e-06  -2.1090844e-04  -3.7459682e-04   0.0000000e+00   0.0000000e+00   0.0000000e+00   0.0000000e+00   3.9478675e-06   2.4098258e-05   1.3994800e-06   3.4495773e-06   6.9099501e-05   2.4724159e-05  -1.9906630e-05   9.2755123e-05   4.8907865e-05   4.3115257e-05  -3.4456874e-05   0.0000000e+00   0.0000000e+00   8.0884075e-05   7.6939440e-05  -4.3178334e-06  -1.5725025e-06   0.0000000e+00  -2.3135842e-04   0.0000000e+00   0.0000000e+00   2.6441873e-05   0.0000000e+00   1.4789381e-05   0.0000000e+00   4.6701245e-05   2.1363653e-04   0.0000000e+00   0.0000000e+00   0.0000000e+00   0.0000000e+00   5.7878603e-05   1.4217264e-04   2.2463992e-04   0.0000000e+00   0.0000000e+00   0.0000000e+00   0.0000000e+00   5.7866382e-06  -5.0472186e-05   6.3189079e-06   1.8860322e-05   1.0240105e-05  -1.0548283e-05  -2.1856641e-05   3.4302956e-05  -7.6289285e-05  -2.0372476e-05  -5.2548212e-05   0.0000000e+00   0.0000000e+00  -6.2936298e-05  -2.2173322e-04  -7.4133546e-05  -2.0615717e-04   0.0000000e+00   6.2006676e-05   0.0000000e+00
   0.0000000e+00   1.1969145e-05   0.0000000e+00  -5.9098251e-05   0.0000000e+00   6.3840254e-05   5.2424587e-04   0.0000000e+00   0.0000000e+00   0.0000000e+00   0.0000000e+00   5.8146699e-05  -1.9555880e-04   8.8207516e-05   0.0000000e+00   0.0000000e+00   0.0000000e+00   0.0000000e+00   4.9741111e-05   6.9265214e-05   5.5724500e-05   5.6411801e-05   1.3439949e-04  -2.4695677e-05  -9.4448099e-06   1.3875499e-04   3.6131044e-05   6.3008249e-06  -3.2208986e-04   0.0000000e+00   0.0000000e+00   8.8546628e-05  -1.8005075e-05  -2.9876128e-05  -8.9410515e-05   0.0000000e+00   9.6749428e-05   0.0000000e+00   0.0000000e+00   3.1952004e-04   0.0000000e+00   2.4433315e-04   0.0000000e+00   7.2080396e-05  -2.9282338e-04   0.0000000e+00   0.0000000e+00   0.0000000e+00   0.0000000e+00   1.8834352e-04  -3.4645185e-05  -3.0004847e-04   0.0000000e+00   0.0000000e+00   0.0000000e+00   0.0000000e+00   1.2185679e-04   2.1349765e-04   2.0300750e-04  -1.2729845e-04   1.7939951e-04   2.0597845e-04   7.7671626e-05   2.5384619e-04   1.4973929e-04   1.9269071e-04   3.6007852e-04   0.0000000e+00   0.0000000e+00   1.3619806e-04   2.0068068e-04   1.0053508e-04   1.1210715e-04   0.0000000e+00  -1.3864981e-04   0.0000000e+00   0.0000000e+00  -7.1289165e-05   0.0000000e+00  -3.8459031e-05   0.0000000e+00  -9.8851523e-05   2.3222229e-04   0.0000000e+00   0.0000000e+00   0.0000000e+00   0.0000000e+00   4.5211537e-05   3.5787965e-04  -3.2135863e-05   0.0000000e+00   0.0000000e+00   0.0000000e+00   0.0000000e+00  -2.3674303e-04   1.7719048e-04   1.1830703e-04  -1.8038707e-04   3.9909259e-05  -1.2377751e-04  -3.7217670e-04  -9.4120740e-05  -1.7386674e-04  -8.9557630e-05  -5.2578889e-04   0.0000000e+00   0.0000000e+00  -1.5216363e-04  -2.0318465e-04  -1.4923139e-04  -4.1130843e-04   0.0000000e+00   9.9299393e-05   0.0000000e+00   0.0000000e+00  -8.5074425e-05   0.0000000e+00  -1.0654983e-04   0.0000000e+00  -1.9878122e-05  -2.9649755e-04   0.0000000e+00   0.0000000e+00   0.0000000e+00   0.0000000e+00  -1.1336117e-05  -8.7920685e-06  -1.4103286e-04   0.0000000e+00   0.0000000e+00   0.0000000e+00   0.0000000e+00  -1.1365139e-05  -1.2483371e-05  -1.4515256e-05  -1.0460316e-05  -4.2006232e-05  -6.2501140e-05  -1.8407269e-05  -5.9855010e-05  -5.3742117e-05  -6.4995350e-05  -6.8840760e-05   0.0000000e+00   0.0000000e+00  -7.8036854e-06  -2.0173441e-05  -3.0701852e-05  -2.7517579e-05   0.0000000e+00  -1.1696286e-04   0.0000000e+00   0.0000000e+00   4.1218325e-06   0.0000000e+00  -8.2728930e-05   0.0000000e+00   1.4244176e-05  -1.2048011e-04   0.0000000e+00   0.0000000e+00   0.0000000e+00   0.0000000e+00   3.7593372e-05  -1.4115359e-04  -3.4114051e-04   0.0000000e+00   0.0000000e+00   0.0000000e+00   0.0000000e+00   1.1003042e-05   1.9349316e-05   4.9083449e-05   8.1417300e-06   1.5937727e-05  -2.0598520e-05  -5.5986472e-05   7.2724213e-05   3.0770682e-05  -7.2662854e-06  -2.0128854e-04   0.0000000e+00   0.0000000e+00   1.1920394e-04   4.1018507e-05  -2.5563079e-05  -6.9841290e-05   0.0000000e+00  -3.3012234e-04   0.0000000e+00   0.0000000e+00  -2.0324415e-05   0.0000000e+00  -3.1454777e-05   0.0000000e+00   2.7042531e-05   2.1325081e-04   0.0000000e+00   0.0000000e+00   0.0000000e+00   0.0000000e+00  -1.1447173e-05  -2.2943979e-05   2.5378064e-04   0.0000000e+00   0.0000000e+00   0.0000000e+00   0.0000000e+00  -2.9190287e-05   2.5513784e-05   1.9788744e-05   1.2991172e-05   3.4325586e-05  -2.0105557e-05  -2.4880037e-05   4.9207543e-06  -8.3590107e-06  -4.2140094e-05  -1.4537310e-04   0.0000000e+00   0.0000000e+00   3.2052126e-05  -9.3627461e-06  -3.3060253e-05  -6.1035945e-05   0.0000000e+00   3.4216872e-05   0.0000000e+00   0.0000000e+00  -1.7793193e-04   0.0000000e+00  -1.5185860e-04   0.0000000e+00  -8.3393017e-05   8.3125021e-04   0.0000000e+00   0.0000000e+00   0.0000000e+00   0.0000000e+00  -1.8709534e-04   7.4112614e-05   6.1071491e-04   0.0000000e+00   0.0000000e+00   0.0000000e+00   0.0000000e+00  -2.0204457e-04  -6.6788136e-05  -1.1805786e-04  -9.4222603e-05  -2.0372203e-04  -9.6768935e-05  -7.7541824e-05  -2.6279176e-04  -1.8165679e-04  -1.3361204e-04   1.3716212e-04   0.0000000e+00   0.0000000e+00  -2.1755150e-04  -2.6428098e-04  -3.7502546e-05  -8.9028526e-05   0.0000000e+00   3.5444491e-04   0.0000000e+00   0.0000000e+00  -8.6251518e-05   0.0000000e+00  -1.0731237e-04   0.0000000e+00  -1.6084011e-07  -2.0682375e-04   0.0000000e+00   0.0000000e+00   0.0000000e+00   0.0000000e+00  -5.7203000e-05  -2.4268748e-04  -2.4916550e-04   0.0000000e+00   0.0000000e+00   0.0000000e+00   0.0000000e+00  -9.7810914e-05   6.3249460e-06  -1.0500545e-04  -7.8093860e-05  -6.2517590e-05  -8.8228338e-05  -7.8534487e-05  -1.3123583e-04  -8.9933777e-05  -8.2320065e-05  -1.3387142e-04   0.0000000e+00   0.0000000e+00  -1.1374973e-04  -1.2691041e-04  -6.2109447e-05  -4.0496993e-05   0.0000000e+00   1.3254659e-04   0.0000000e+00   0.0000000e+00   9.0659380e-05   0.0000000e+00   5.8730533e-05   0.0000000e+00   1.4565793e-04   2.1271268e-04   0.0000000e+00   0.0000000e+00   0.0000000e+00   0.0000000e+00   1.3884472e-04   8.3010895e-05  -6.2010164e-05   0.0000000e+00   0.0000000e+00   0.0000000e+00   0.0000000e+00   2.0747858e-04   1.7315770e-04   9.8245126e-05   4.8534036e-05   1.1309122e-04   7.7169464e-05   8.5288984e-05   5.2184111e-05   1.1370433e-04   6.4268354e-05  -1.5315815e-04   0.0000000e+00   0.0000000e+00   8.6970729e-05   5.0796971e-05   8.3951146e-05   1.8405018e-04   0.0000000e+00  -1.3096999e-04   0.0000000e+00   0.0000000e+00   2.2402858e-05   0.0000000e+00  -5.1728244e-05   0.0000000e+00  -2.2465211e-06  -5.3835271e-04   0.0000000e+00   0.0000000e+00   0.0000000e+00   0.0000000e+00  -3.9913663e-06  -2.2188381e-04  -4.1608550e-04   0.0000000e+00   0.0000000e+00   0.0000000e+00   0.0000000e+00   7.3615516e-06   2.8522061e-05   1.7701196e-06   2.8933495e-06   7.1087578e-05   2.8164647e-05  -2.0897475e-05   9.5931898e-05   5.3346331e-05   4.7383316e-05  -2.1268832e-05   0.0000000e+00   0.0000000e+00   8.7143165e-05   8.1146569e-05   1.5196994e-06   7.6703648e-06   0.0000000e+00  -2.6011693e-04   0.0000000e+00   0.0000000e+00   2.5806328e-05   0.0000000e+00   1.9947482e-05   0.0000000e+00   5.1195192e-05   2.2447825e-04   0.0000000e+00   0.0000000e+00   0.0000000e+00   0.0000000e+00   6.4730489e-05   1.3665675e-04   2.3069173e-04   0.0000000e+00   0.0000000e+00   0.0000000e+00   0.0000000e+00   8.3008490e-06  -5.2736022e-05   8.9047614e-06   1.2711172e-05   1.7218345e-05  -8.6076719e-06  -1.5744824e-05   3.8929322e-05  -7.8766731e-05  -1.4268730e-05  -5.4098124e-05   0.0000000e+00   0.0000000e+00  -6.0989532e-05  -2.0197742e-04  -7.6083528e-05  -2.1268112e-04   0.0000000e+00   5.8457879e-05   0.0000000e+00
   0.0000000e+00   4.7030062e-06   0.0000000e+00  -6.8504959e-05   0.0000000e+00   6.2992814e-05   5.3100901e-04   0.0000000e+00   0.0000000e+00   0.0000000e+00   0.0000000e+00   5.4150925e-05  -1.8511814e-04   9.3552553e-05   0.0000000e+00   0.0000000e+00   0.0000000e+00   0.0000000e+00   3.9763140e-05   6.6163447e-05   5.2465238e-05   5.1820838e-05   1.2875265e-04  -2.8121500e-05  -1.2722435e-05   1.3084873e-04   3.0653963e-05   7.5572972e-07  -3.1942865e-04   0.0000000e+00   0.0000000e+00   8.4906609e-05  -2.1199532e-05  -3.1602642e-05  -9.1600115e-05   0.0000000e+00   1.0818429e-04   0.0000000e+00   0.0000000e+00   3.7009146e-04   0.0000000e+00   2.8278100e-04   0.0000000e+00   8.6671592e-05  -3.7618079e-04   0.0000000e+00   0.0000000e+00   0.0000000e+00   0.0000000e+00   2.2370390e-04   1.1520789e-05  -3.7517711e-04   0.0000000e+00   0.0000000e+00   0.0000000e+00   0.0000000e+00   1.3317181e-04   2.2777306e-04   2.1720152e-04  -1.3394877e-04   1.8534986e-04   2.4450244e-04   1.0376946e-04   2.6530079e-04   1.6214984e-04   2.2270011e-04   5.0389414e-04   0.0000000e+00   0.0000000e+00   1.3202582e-04   2.0854138e-04   1.1390534e-04   1.4777009e-04   0.0000000e+00  -1.4174611e-04   0.0000000e+00   0.0000000e+00  -9.7317662e-05   0.0000000e+00  -6.5947625e-05   0.0000000e+00  -1.1582581e-04   2.4748009e-04   0.0000000e+00   0.0000000e+00   0.0000000e+00   0.0000000e+00  -2.0832992e-07   3.7347324e-04  -2.5357028e-05   0.0000000e+00   0.0000000e+00   0.0000000e+00   0.0000000e+00  -2.7463584e-04   1.6258518e-04   9.3782486e-05  -2.0854482e-04   1.0955179e-06  -1.5071535e-04  -4.0850048e-04  -1.5008709e-04  -2.2397879e-04  -1.1974922e-04  -5.4335733e-04   0.0000000e+00   0.0000000e+00  -2.0310049e-04  -2.3645226e-04  -1.8356620e-04  -4.5192293e-04   0.0000000e+00   1.0686338e-04   0.0000000e+00   0.0000000e+00  -9.1153680e-05   0.0000000e+00  -1.0783249e-04   0.0000000e+00  -2.6385194e-05  -3.1720816e-04   0.0000000e+00   0.0000000e+00   0.0000000e+00   0.0000000e+00  -1.8021020e-05  -2.2328536e-06  -1.3523980e-04   0.0000000e+00   0.0000000e+00   0.0000000e+00   0.0000000e+00  -1.7469147e-05  -1.8617953e-05  -1.7852137e-05  -1.4195731e-05  -5.0620087e-05  -6.4702687e-05  -1.6401157e-05  -6.7875008e-05  -5.5999025e-05  -6.6962928e-05  -6.5462727e-05   0.0000000e+00   0.0000000e+00  -1.2691167e-05  -1.6959249e-05  -2.9134590e-05  -2.0929603e-05   0.0000000e+00  -1.4339135e-04   0.0000000e+00   0.0000000e+00   1.7088231e-05   0.0000000e+00  -8.6250065e-05   0.0000000e+00   1.1579309e-05  -1.5356137e-04   0.0000000e+00   0.0000000e+00   0.0000000e+00   0.0000000e+00   4.1499274e-05  -1.0916430e-04  -3.3249093e-04   0.0000000e+00   0.0000000e+00   0.0000000e+00   0.0000000e+00   1.8643059e-06   1.3344755e-05   4.2094368e-05  -5.4445055e-07   5.3351414e-07  -1.8057771e-05  -5.7844109e-05   5.2194768e-05   2.2511242e-05  -1.1084535e-05  -1.9173245e-04   0.0000000e+00   0.0000000e+00   1.0754420e-04   3.6935898e-05  -2.6770334e-05  -7.0041132e-05   0.0000000e+00  -3.4373704e-04   0.0000000e+00   0.0000000e+00  -2.3939213e-05   0.0000000e+00  -3.2070609e-05   0.0000000e+00   2.5708054e-05   2.0105908e-04   0.0000000e+00   0.0000000e+00   0.0000000e+00   0.0000000e+00  -1.5276262e-05  -1.6956501e-05   2.6080903e-04   0.0000000e+00   0.0000000e+00   0.0000000e+00   0.0000000e+00  -3.3990804e-05   2.2695537e-05   1.7363625e-05   7.2628346e-06   2.8902621e-05  -2.2739625e-05  -2.8227066e-05  -2.6673568e-06  -1.3402944e-05  -4.7018761e-05  -1.4322869e-04   0.0000000e+00   0.0000000e+00   2.8142865e-05  -1.2592132e-05  -3.3299709e-05  -6.1984304e-05   0.0000000e+00   3.3263585e-05   0.0000000e+00   0.0000000e+00  -1.9319731e-04   0.0000000e+00  -1.5621313e-04   0.0000000e+00  -9.7553493e-05   7.8304563e-04   0.0000000e+00   0.0000000e+00   0.0000000e+00   0.0000000e+00  -2.1422757e-04   8.6420602e-05   6.2746508e-04   0.0000000e+00   0.0000000e+00   0.0000000e+00   0.0000000e+00  -2.2811026e-04  -8.6492404e-05  -1.3399396e-04  -1.0258220e-04  -2.2995672e-04  -1.1047670e-04  -9.4896175e-05  -2.9291294e-04  -1.9818476e-04  -1.4693897e-04   1.3775112e-04   0.0000000e+00   0.0000000e+00  -2.3922741e-04  -2.7674551e-04  -4.0106379e-05  -9.9752835e-05   0.0000000e+00   3.4406583e-04   0.0000000e+00   0.0000000e+00  -9.7997682e-05   0.0000000e+00  -1.0698044e-04   0.0000000e+00  -1.1687192e-05  -2.9519986e-04   0.0000000e+00   0.0000000e+00   0.0000000e+00   0.0000000e+00  -7.5752978e-05  -2.4985848e-04  -3.2184021e-04   0.0000000e+00   0.0000000e+00   0.0000000e+00   0.0000000e+00  -1.1979420e-04  -7.2813977e-06  -1.2046263e-04  -8.8120281e-05  -8.1876894e-05  -8.8013753e-05  -8.1708743e-05  -1.5496696e-04  -9.8932283e-05  -8.7904789e-05  -8.5735769e-05   0.0000000e+00   0.0000000e+00  -1.3298041e-04  -1.3305990e-04  -5.9595258e-05  -3.0584340e-05   0.0000000e+00   1.2205600e-04   0.0000000e+00   0.0000000e+00   8.6467905e-05   0.0000000e+00   5.7432240e-05   0.0000000e+00   1.3981620e-04   1.8116734e-04   0.0000000e+00   0.0000000e+00   0.0000000e+00   0.0000000e+00   1.3087828e-04   8.5586573e-05  -7.3705334e-05   0.0000000e+00   0.0000000e+00   0.0000000e+00   0.0000000e+00   2.1007912e-04   1.6533449e-04   9.7883062e-05   3.7638868e-05   1.0129337e-04   7.1659701e-05   8.2549411e-05   4.3557987e-05   1.1152161e-04   6.1150774e-05  -1.8882268e-04   0.0000000e+00   0.0000000e+00   8.1807451e-05   4.6800302e-05   9.1944477e-05   1.9241605e-04   0.0000000e+00  -1.7982604e-04   0.0000000e+00   0.0000000e+00   2.8595704e-05   0.0000000e+00  -5.2998925e-05   0.0000000e+00  -2.6580566e-06  -5.7910664e-04   0.0000000e+00   0.0000000e+00   0.0000000e+00   0.0000000e+00   1.6918082e-06  -2.3027837e-04  -4.5448283e-04   0.0000000e+00   0.0000000e+00   0.0000000e+00   0.0000000e+00   1.1933108e-05   3.3525020e-05   2.7685905e-06   3.8854427e-06   7.3380432e-05   3.2295911e-05  -2.0054376e-05   9.9463504e-05   5.8435349e-05   5.2166984e-05  -8.0039754e-06   0.0000000e+00   0.0000000e+00   9.3440714e-05   8.4598235e-05   7.3759445e-06   1.7290196e-05   0.0000000e+00  -2.8864591e-04   0.0000000e+00   0.0000000e+00   2.5289299e-05   0.0000000e+00   2.4356268e-05   0.0000000e+00   5.5481401e-05   2.3201875e-04   0.0000000e+00   0.0000000e+00   0.0000000e+00   0.0000000e+00   7.0967164e-05   1.2836704e-04   2.3448884e-04   0.0000000e+00   0.0000000e+00   0.0000000e+00   0.0000000e+00   1.1997337e-05  -5.3619510e-05   1.1774723e-05   4.6235615e-06   2.4124324e-05  -6.5437992e-06  -9.1971748e-06   4.2592163e-05  -8.0905906e-05  -8.7668032e-06  -5.4251202e-05   0.0000000e+00   0.0000000e+00  -5.7301676e-05  -1.8007769e-04  -7.8390483e-05  -2.1737682e-04   0.0000000e+00   5.3721314e-05   0.0000000e+00
   0.0000000e+00  -3.0149432e-06   0.0000000e+00  -7.7313454e-05   0.0000000e+00   6.1067017e-05   5.2959533e-04   0.0000000e+00   0.0000000e+00   0.0000000e+00   0.0000000e+00   4.9013356e-05  -1.7174802e-04   9.7134690e-05   0.0000000e+00   0.0000000e+00   0.0000000e+00   0.0000000e+00   2.8739064e-05   6.1939702e-05   4.8334121e-05   4.6347715e-05   1.2080943e-04  -3.1394703e-05  -1.6040132e-05   1.2061676e-04   2.4509115e-05  -5.1385032e-06  -3.1320654e-04   0.0000000e+00   0.0000000e+00   7.9697411e-05  -2.4199075e-05  -3.3061157e-05  -9.2831513e-05   0.0000000e+00   1.1812538e-04   0.0000000e+00   0.0000000e+00   4.1988596e-04   0.0000000e+00   3.2190343e-04   0.0000000e+00   1.0459223e-04  -4.5847195e-04   0.0000000e+00   0.0000000e+00   0.0000000e+00   0.0000000e+00   2.6263580e-04   5.8605718e-05  -4.5007269e-04   0.0000000e+00   0.0000000e+00   0.0000000e+00   0.0000000e+00   1.4429965e-04   2.4002216e-04   2.3148447e-04  -1.3502758e-04   1.9036817e-04   2.8585942e-04   1.3180248e-04   2.7621128e-04   1.7564879e-04   2.5320873e-04   6.4916316e-04   0.0000000e+00   0.0000000e+00   1.2520593e-04   2.1603353e-04   1.2775889e-04   1.8581319e-04   0.0000000e+00  -1.4476069e-04   0.0000000e+00   0.0000000e+00  -1.2122744e-04   0.0000000e+00  -9.2514859e-05   0.0000000e+00  -1.3174271e-04   2.6412602e-04   0.0000000e+00   0.0000000e+00   0.0000000e+00   0.0000000e+00  -4.5784284e-05   3.8764525e-04  -1.6764849e-05   0.0000000e+00   0.0000000e+00   0.0000000e+00   0.0000000e+00  -3.0872974e-04   1.4621235e-04   6.7691630e-05  -2.3476759e-04  -3.8656487e-05  -1.7588996e-04  -4.4052811e-04  -2.0427120e-04  -2.7199223e-04  -1.4864899e-04  -5.5581013e-04   0.0000000e+00   0.0000000e+00  -2.4970944e-04  -2.6756936e-04  -2.1754376e-04  -4.8922944e-04   0.0000000e+00   1.1901161e-04   0.0000000e+00   0.0000000e+00  -9.6321495e-05   0.0000000e+00  -1.0732344e-04   0.0000000e+00  -3.2933762e-05  -3.3602202e-04   0.0000000e+00   0.0000000e+00   0.0000000e+00   0.0000000e+00  -2.4554794e-05   5.5797332e-06  -1.2815914e-04   0.0000000e+00   0.0000000e+00   0.0000000e+00   0.0000000e+00  -2.3063323e-05  -2.4265755e-05  -2.0832258e-05  -1.7782112e-05  -5.8528913e-05  -6.6005889e-05  -1.3701018e-05  -7.4854419e-05  -5.6855344e-05  -6.7765714e-05  -6.0058008e-05   0.0000000e+00   0.0000000e+00  -1.6689907e-05  -1.2466414e-05  -2.6982009e-05  -1.3433343e-05   0.0000000e+00  -1.6977641e-04   0.0000000e+00   0.0000000e+00   3.0786980e-05   0.0000000e+00  -8.9543704e-05   0.0000000e+00   9.8020428e-06  -1.8167989e-04   0.0000000e+00   0.0000000e+00   0.0000000e+00   0.0000000e+00   4.6968523e-05  -7.9568919e-05  -3.2127791e-04   0.0000000e+00   0.0000000e+00   0.0000000e+00   0.0000000e+00  -6.3619322e-06   6.8319153e-06   3.4503596e-05  -7.7274230e-06  -1.5314413e-05  -1.4748425e-05  -5.9189221e-05   2.9303898e-05   1.2695580e-05  -1.5480260e-05  -1.8507328e-04   0.0000000e+00   0.0000000e+00   9.3276534e-05   3.1310903e-05  -2.8455354e-05  -6.9600534e-05   0.0000000e+00  -3.5684473e-04   0.0000000e+00   0.0000000e+00  -2.6990554e-05   0.0000000e+00  -3.1601426e-05   0.0000000e+00   2.4760955e-05   1.8733336e-04   0.0000000e+00   0.0000000e+00   0.0000000e+00   0.0000000e+00  -1.7950037e-05  -1.0550593e-05   2.6614958e-04   0.0000000e+00   0.0000000e+00   0.0000000e+00   0.0000000e+00  -3.7435713e-05   2.0247290e-05   1.5135904e-05   2.2658959e-06   2.3624587e-05  -2.4369645e-05  -3.0541060e-05  -9.5609656e-06  -1.7771768e-05  -5.0756419e-05  -1.3656536e-04   0.0000000e+00   0.0000000e+00   2.4598317e-05  -1.5220983e-05  -3.2569317e-05  -6.1178153e-05   0.0000000e+00   3.1693954e-05   0.0000000e+00   0.0000000e+00  -2.0651961e-04   0.0000000e+00  -1.5932852e-04   0.0000000e+00  -1.1116320e-04   7.3225854e-04   0.0000000e+00   0.0000000e+00   0.0000000e+00   0.0000000e+00  -2.3958491e-04   9.9141851e-05   6.4089169e-04   0.0000000e+00   0.0000000e+00   0.0000000e+00   0.0000000e+00  -2.5227614e-04  -1.0601668e-04  -1.4904685e-04  -1.1017037e-04  -2.5391068e-04  -1.2373521e-04  -1.1240476e-04  -3.1983929e-04  -2.1295622e-04  -1.5909849e-04   1.3444720e-04   0.0000000e+00   0.0000000e+00  -2.5805806e-04  -2.8696347e-04  -4.2921271e-05  -1.1052363e-04   0.0000000e+00   3.3346099e-04   0.0000000e+00   0.0000000e+00  -1.0969698e-04   0.0000000e+00  -1.0581010e-04   0.0000000e+00  -2.4339253e-05  -3.8062463e-04   0.0000000e+00   0.0000000e+00   0.0000000e+00   0.0000000e+00  -9.5116435e-05  -2.5597798e-04  -3.9525603e-04   0.0000000e+00   0.0000000e+00   0.0000000e+00   0.0000000e+00  -1.4138309e-04  -2.1692834e-05  -1.3541941e-04  -9.6853736e-05  -1.0182699e-04  -8.7899486e-05  -8.4367436e-05  -1.7816640e-04  -1.0686076e-04  -9.3285610e-05  -4.3013797e-05   0.0000000e+00   0.0000000e+00  -1.5203739e-04  -1.3830140e-04  -5.6359888e-05  -2.1576968e-05   0.0000000e+00   1.1189190e-04   0.0000000e+00   0.0000000e+00   8.2042424e-05   0.0000000e+00   5.5639663e-05   0.0000000e+00   1.3296839e-04   1.5480293e-04   0.0000000e+00   0.0000000e+00   0.0000000e+00   0.0000000e+00   1.2106056e-04   8.4552605e-05  -8.1351318e-05   0.0000000e+00   0.0000000e+00   0.0000000e+00   0.0000000e+00   2.1154152e-04   1.5560606e-04   9.6889461e-05   2.6771599e-05   8.7557638e-05   6.3857204e-05   8.0037299e-05   3.5141512e-05   1.1041659e-04   5.7839267e-05  -2.4035046e-04   0.0000000e+00   0.0000000e+00   7.6193632e-05   4.2537078e-05   9.8292502e-05   1.9876825e-04   0.0000000e+00  -2.3720216e-04   0.0000000e+00   0.0000000e+00   3.5310079e-05   0.0000000e+00  -5.3132682e-05   0.0000000e+00  -2.1131428e-06  -6.1349713e-04   0.0000000e+00   0.0000000e+00   0.0000000e+00   0.0000000e+00   8.7746378e-06  -2.3644750e-04  -4.8902707e-04   0.0000000e+00   0.0000000e+00   0.0000000e+00   0.0000000e+00   1.7688218e-05   3.9072314e-05   4.5043926e-06   6.7066709e-06   7.6113409e-05   3.7069893e-05  -1.7418124e-05   1.0349644e-04   6.4065676e-05   5.7259688e-05   3.5935991e-06   0.0000000e+00   0.0000000e+00   9.9695518e-05   8.7266988e-05   1.2834168e-05   2.6512902e-05   0.0000000e+00  -3.1609233e-04   0.0000000e+00   0.0000000e+00   2.4966104e-05   0.0000000e+00   2.7814451e-05   0.0000000e+00   5.9443324e-05   2.3582623e-04   0.0000000e+00   0.0000000e+00   0.0000000e+00   0.0000000e+00   7.6306267e-05   1.1753362e-04   2.3598601e-04   0.0000000e+00   0.0000000e+00   0.0000000e+00   0.0000000e+00   1.6835307e-05  -5.2976276e-05   1.4865473e-05  -5.1954342e-06   3.0418228e-05  -4.4529691e-06  -2.5087381e-06   4.4929563e-05  -8.2843422e-05  -4.2433531e-06  -5.3146981e-05   0.0000000e+00   0.0000000e+00  -5.2040286e-05  -1.5732389e-04  -8.0939346e-05  -2.2020258e-04   0.0000000e+00   4.7856820e-05   0.0000000e+00
   0.0000000e+00  -1.0968535e-05   0.0000000e+00  -8.5331569e-05   0.0000000e+00   5.8118015e-05   5.2064090e-04   0.0000000e+00   0.0000000e+00   0.0000000e+00   0.0000000e+00   4.2867923e-05  -1.5582061e-04   9.9132437e-05   0.0000000e+00   0.0000000e+00   0.0000000e+00   0.0000000e+00   1.6965917e-05   5.6716958e-05   4.3442881e-05   4.0138739e-05   1.1080518e-04  -3.4490780e-05  -1.9360486e-05   1.0835785e-04   1.7831140e-05  -1.1270321e-05  -3.0414912e-04   0.0000000e+00   0.0000000e+00   7.3050957e-05  -2.6972304e-05  -3.4272815e-05  -9.3188064e-05   0.0000000e+00   1.2630888e-04   0.0000000e+00   0.0000000e+00   4.6746078e-04   0.0000000e+00   3.6061978e-04   0.0000000e+00   1.2561069e-04  -5.3631054e-04   0.0000000e+00   0.0000000e+00   0.0000000e+00   0.0000000e+00   3.0414923e-04   1.0423579e-04  -5.2236602e-04   0.0000000e+00   0.0000000e+00   0.0000000e+00   0.0000000e+00   1.5455582e-04   2.4986157e-04   2.4556755e-04  -1.3082725e-04   1.9462496e-04   3.2918724e-04   1.6054096e-04   2.8663554e-04   1.8993819e-04   2.8343636e-04   7.8970430e-04   0.0000000e+00   0.0000000e+00   1.1591785e-04   2.2308759e-04   1.4162368e-04   2.2482289e-04   0.0000000e+00  -1.4705039e-04   0.0000000e+00   0.0000000e+00  -1.4178689e-04   0.0000000e+00  -1.1670006e-04   0.0000000e+00  -1.4605272e-04   2.8325091e-04   0.0000000e+00   0.0000000e+00   0.0000000e+00   0.0000000e+00  -8.9686475e-05   4.0087965e-04  -5.9323162e-06   0.0000000e+00   0.0000000e+00   0.0000000e+00   0.0000000e+00  -3.3766587e-04   1.2887506e-04   4.0999990e-05  -2.5820902e-04  -7.8046579e-05  -1.9831941e-04  -4.6743760e-04  -2.5463064e-04  -3.1595578e-04  -1.7490171e-04  -5.6144650e-04   0.0000000e+00   0.0000000e+00  -2.9016602e-04  -2.9538743e-04  -2.4981161e-04  -5.2160671e-04   0.0000000e+00   1.3680637e-04   0.0000000e+00   0.0000000e+00  -1.0047466e-04   0.0000000e+00  -1.0501384e-04   0.0000000e+00  -3.9333787e-05  -3.5309179e-04   0.0000000e+00   0.0000000e+00   0.0000000e+00   0.0000000e+00  -3.0683214e-05   1.4575490e-05  -1.2033761e-04   0.0000000e+00   0.0000000e+00   0.0000000e+00   0.0000000e+00  -2.7901089e-05  -2.9175415e-05  -2.3301193e-05  -2.1051716e-05  -6.5444957e-05  -6.6320979e-05  -1.0317695e-05  -8.0552142e-05  -5.6238168e-05  -6.7347729e-05  -5.2240592e-05   0.0000000e+00   0.0000000e+00  -1.9565624e-05  -6.7021058e-06  -2.4240519e-05  -5.1161519e-06   0.0000000e+00  -1.9558346e-04   0.0000000e+00   0.0000000e+00   4.4570503e-05   0.0000000e+00  -9.2714371e-05   0.0000000e+00   9.0395189e-06  -2.0292420e-04   0.0000000e+00   0.0000000e+00   0.0000000e+00   0.0000000e+00   5.3808392e-05  -5.5787345e-05  -3.0765289e-04   0.0000000e+00   0.0000000e+00   0.0000000e+00   0.0000000e+00  -1.3428364e-05   4.1433934e-09   2.6576497e-05  -1.2899963e-05  -3.1135322e-05  -1.0991917e-05  -6.0284550e-05   4.8479468e-06   1.5441229e-06  -2.0514689e-05  -1.8292553e-04   0.0000000e+00   0.0000000e+00   7.6765294e-05   2.4301564e-05  -3.0753421e-05  -6.8825782e-05   0.0000000e+00  -3.6940611e-04   0.0000000e+00   0.0000000e+00  -2.9376781e-05   0.0000000e+00  -2.9996366e-05   0.0000000e+00   2.4329012e-05   1.7238400e-04   0.0000000e+00   0.0000000e+00   0.0000000e+00   0.0000000e+00  -1.9304022e-05  -3.9028533e-06   2.6978896e-04   0.0000000e+00   0.0000000e+00   0.0000000e+00   0.0000000e+00  -3.9272551e-05   1.8380550e-05   1.3268515e-05  -1.7562761e-06   1.8742193e-05  -2.4915387e-05  -3.1810116e-05  -1.5447160e-05  -2.1307623e-05  -5.3253920e-05  -1.2581533e-04   0.0000000e+00   0.0000000e+00   2.1655858e-05  -1.7134152e-05  -3.0975575e-05  -5.8780411e-05   0.0000000e+00   2.9579930e-05   0.0000000e+00   0.0000000e+00  -2.1765475e-04   0.0000000e+00  -1.6124080e-04   0.0000000e+00  -1.2388748e-04   6.8253857e-04   0.0000000e+00   0.0000000e+00   0.0000000e+00   0.0000000e+00  -2.6256457e-04   1.1183737e-04   6.5220407e-04   0.0000000e+00   0.0000000e+00   0.0000000e+00   0.0000000e+00  -2.7396052e-04  -1.2488665e-04  -1.6290851e-04  -1.1683272e-04  -2.7495274e-04  -1.3624549e-04  -1.2961453e-04  -3.4293227e-04  -2.2569746e-04  -1.6990255e-04   1.2670220e-04   0.0000000e+00   0.0000000e+00  -2.7347224e-04  -2.9499023e-04  -4.5833846e-05  -1.2114080e-04   0.0000000e+00   3.2320143e-04   0.0000000e+00   0.0000000e+00  -1.2110380e-04   0.0000000e+00  -1.0405980e-04   0.0000000e+00  -3.7884561e-05  -4.5830584e-04   0.0000000e+00   0.0000000e+00   0.0000000e+00   0.0000000e+00  -1.1485498e-04  -2.6103234e-04  -4.6556391e-04   0.0000000e+00   0.0000000e+00   0.0000000e+00   0.0000000e+00  -1.6214092e-04  -3.6680799e-05  -1.4960486e-04  -1.0415891e-04  -1.2183165e-04  -8.8122068e-05  -8.6593884e-05  -2.0030477e-04  -1.1366556e-04  -9.8475017e-05  -7.5697989e-06   0.0000000e+00   0.0000000e+00  -1.7053255e-04  -1.4261306e-04  -5.2594348e-05  -1.3940428e-05   0.0000000e+00   1.0315906e-04   0.0000000e+00   0.0000000e+00   7.7445366e-05   0.0000000e+00   5.3220843e-05   0.0000000e+00   1.2544773e-04   1.3740126e-04   0.0000000e+00   0.0000000e+00   0.0000000e+00   0.0000000e+00   1.0961209e-04   7.9617234e-05  -8.3573657e-05   0.0000000e+00   0.0000000e+00   0.0000000e+00   0.0000000e+00   2.1170461e-04   1.4421527e-04   9.5137571e-05   1.6442584e-05   7.2324097e-05   5.3712846e-05   7.7895214e-05   2.7319712e-05   1.1094554e-04   5.4409955e-05  -3.0882383e-04   0.0000000e+00   0.0000000e+00   7.0251875e-05   3.8338327e-05   1.0278886e-04   2.0272402e-04   0.0000000e+00  -3.0199558e-04   0.0000000e+00   0.0000000e+00   4.2238277e-05   0.0000000e+00  -5.2226798e-05   0.0000000e+00  -4.9085074e-07  -6.4149052e-04   0.0000000e+00   0.0000000e+00   0.0000000e+00   0.0000000e+00   1.7129317e-05  -2.4097258e-04  -5.1908805e-04   0.0000000e+00   0.0000000e+00   0.0000000e+00   0.0000000e+00   2.4562062e-05   4.5089578e-05   7.0410549e-06   1.1484085e-05   7.9353723e-05   4.2354078e-05  -1.3192858e-05   1.0809415e-04   7.0037096e-05   6.2372085e-05   1.1747517e-05   0.0000000e+00   0.0000000e+00   1.0578686e-04   8.9136966e-05   1.7474072e-05   3.4521388e-05   0.0000000e+00  -3.4160764e-04   0.0000000e+00   0.0000000e+00   2.4885494e-05   0.0000000e+00   3.0184572e-05   0.0000000e+00   6.2965992e-05   2.3560672e-04   0.0000000e+00   0.0000000e+00   0.0000000e+00   0.0000000e+00   8.0474801e-05   1.0447645e-04   2.3518752e-04   0.0000000e+00   0.0000000e+00   0.0000000e+00   0.0000000e+00   2.2682994e-05  -5.0725154e-05   1.8088963e-05  -1.6404624e-05   3.5540444e-05  -2.4216709e-06   4.0312237e-06   4.5602723e-05  -8.4734004e-05  -1.0221593e-06  -5.0985669e-05   0.0000000e+00   0.0000000e+00  -4.5466847e-05  -1.3495202e-04  -8.3547864e-05  -2.2114837e-04   0.0000000e+00   4.0984001e-05   0.0000000e+00
   0.0000000e+00  -1.8926987e-05   0.0000000e+00  -9.2395586e-05   0.0000000e+00   5.4233241e-05   5.0509504e-04   0.0000000e+00   0.0000000e+00   0.0000000e+00   0.0000000e+00   3.5882573e-05  -1.3778269e-04   9.9856557e-05   0.0000000e+00   0.0000000e+00   0.0000000e+00   0.0000000e+00   4.7607774e-06   5.0646008e-05   3.7922262e-05   3.3357524e-05   9.9037557e-05  -3.7393657e-05  -2.2648345e-05   9.4431614e-05   1.0763219e-05  -1.7521559e-05  -2.9305827e-04   0.0000000e+00   0.0000000e+00   6.5141320e-05  -2.9504286e-05  -3.5266981e-05  -9.2782081e-05   0.0000000e+00   1.3254078e-04   0.0000000e+00   0.0000000e+00   5.1147419e-04   0.0000000e+00   3.9786609e-04   0.0000000e+00   1.4929443e-04  -6.0644361e-04   0.0000000e+00   0.0000000e+00   0.0000000e+00   0.0000000e+00   3.4703597e-04   1.4622839e-04  -5.8988877e-04   0.0000000e+00   0.0000000e+00   0.0000000e+00   0.0000000e+00   1.6319835e-04   2.5697152e-04   2.5906639e-04  -1.2200382e-04   1.9832426e-04   3.7349984e-04   1.8870666e-04   2.9661418e-04   2.0463160e-04   3.1264861e-04   9.1938762e-04   0.0000000e+00   0.0000000e+00   1.0442032e-04   2.2957027e-04   1.5501726e-04   2.6331740e-04   0.0000000e+00  -1.4773632e-04   0.0000000e+00   0.0000000e+00  -1.5786870e-04   0.0000000e+00  -1.3711465e-04   0.0000000e+00  -1.5821882e-04   3.0589444e-04   0.0000000e+00   0.0000000e+00   0.0000000e+00   0.0000000e+00  -1.3019250e-04   4.1374612e-04   7.5337642e-06   0.0000000e+00   0.0000000e+00   0.0000000e+00   0.0000000e+00  -3.6031587e-04   1.1138958e-04   1.4671952e-05  -2.7808509e-04  -1.1579858e-04  -2.1712319e-04  -4.8856277e-04  -2.9927039e-04  -3.5405070e-04  -1.9723915e-04  -5.5834074e-04   0.0000000e+00   0.0000000e+00  -3.2293690e-04  -3.1884964e-04  -2.7894087e-04  -5.4742693e-04   0.0000000e+00   1.6094268e-04   0.0000000e+00   0.0000000e+00  -1.0353984e-04   0.0000000e+00  -1.0095639e-04   0.0000000e+00  -4.5399976e-05  -3.6859001e-04   0.0000000e+00   0.0000000e+00   0.0000000e+00   0.0000000e+00  -3.6178085e-05   2.4563608e-05  -1.1234158e-04   0.0000000e+00   0.0000000e+00   0.0000000e+00   0.0000000e+00  -3.1769256e-05  -3.3127933e-05  -2.5119142e-05  -2.3853236e-05  -7.1108902e-05  -6.5588990e-05  -6.2853447e-06  -8.4763209e-05  -5.4132167e-05  -6.5692513e-05  -4.1755159e-05   0.0000000e+00   0.0000000e+00  -2.1130019e-05   2.7482999e-07  -2.0924449e-05   3.9070565e-06   0.0000000e+00  -2.2033188e-04   0.0000000e+00   0.0000000e+00   5.7767867e-05   0.0000000e+00  -9.5843967e-05   0.0000000e+00   9.3418094e-06  -2.1581740e-04   0.0000000e+00   0.0000000e+00   0.0000000e+00   0.0000000e+00   6.1689199e-05  -4.1025552e-05  -2.9182622e-04   0.0000000e+00   0.0000000e+00   0.0000000e+00   0.0000000e+00  -1.9183791e-05  -6.9509216e-06   1.8557389e-05  -1.5681324e-05  -4.6482632e-05  -7.1603274e-06  -6.1408857e-05  -2.0317441e-05  -1.0656011e-05  -2.6219983e-05  -1.8655906e-04   0.0000000e+00   0.0000000e+00   5.8444261e-05   1.6142563e-05  -3.3761924e-05  -6.8028940e-05   0.0000000e+00  -3.8134424e-04   0.0000000e+00   0.0000000e+00  -3.1027717e-05   0.0000000e+00  -2.7271056e-05   0.0000000e+00   2.4495317e-05   1.5653642e-04   0.0000000e+00   0.0000000e+00   0.0000000e+00   0.0000000e+00  -1.9257654e-05   2.8021805e-06   2.7180305e-04   0.0000000e+00   0.0000000e+00   0.0000000e+00   0.0000000e+00  -3.9331049e-05   1.7270937e-05   1.1900365e-05  -4.6386512e-06   1.4466272e-05  -2.4373087e-05  -3.2108452e-05  -2.0082230e-05  -2.3913691e-05  -5.4495747e-05  -1.1171798e-04   0.0000000e+00   0.0000000e+00   1.9505459e-05  -1.8265303e-05  -2.8684983e-05  -5.5079712e-05   0.0000000e+00   2.7005307e-05   0.0000000e+00   0.0000000e+00  -2.2643008e-04   0.0000000e+00  -1.6202701e-04   0.0000000e+00  -1.3541765e-04   6.3744317e-04   0.0000000e+00   0.0000000e+00   0.0000000e+00   0.0000000e+00  -2.8267316e-04   1.2392324e-04   6.6282771e-04   0.0000000e+00   0.0000000e+00   0.0000000e+00   0.0000000e+00  -2.9267666e-04  -1.4265813e-04  -1.7530995e-04  -1.2243769e-04  -2.9257699e-04  -1.4776777e-04  -1.4610800e-04  -3.6171672e-04  -2.3621846e-04  -1.7925235e-04   1.1390082e-04   0.0000000e+00   0.0000000e+00  -2.8505109e-04  -3.0095979e-04  -4.8733043e-05  -1.3145553e-04   0.0000000e+00   3.1378937e-04   0.0000000e+00   0.0000000e+00  -1.3196949e-04   0.0000000e+00  -1.0199389e-04   0.0000000e+00  -5.2051564e-05  -5.2378230e-04   0.0000000e+00   0.0000000e+00   0.0000000e+00   0.0000000e+00  -1.3449834e-04  -2.6497145e-04  -5.2904494e-04   0.0000000e+00   0.0000000e+00   0.0000000e+00   0.0000000e+00  -1.8165559e-04  -5.2012555e-05  -1.6277569e-04  -1.0997165e-04  -1.4132742e-04  -8.8859027e-05  -8.8475456e-05  -2.2087406e-04  -1.1934533e-04  -1.0347094e-04   1.9316944e-05   0.0000000e+00   0.0000000e+00  -1.8807862e-04  -1.4599897e-04  -4.8512044e-05  -8.0333647e-06   0.0000000e+00   9.6778491e-05   0.0000000e+00   0.0000000e+00   7.2662794e-05   0.0000000e+00   5.0037437e-05   0.0000000e+00   1.1753997e-04   1.3214083e-04   0.0000000e+00   0.0000000e+00   0.0000000e+00   0.0000000e+00   9.6793621e-05   7.0677457e-05  -7.9262682e-05   0.0000000e+00   0.0000000e+00   0.0000000e+00   0.0000000e+00   2.1041440e-04   1.3145190e-04   9.2479547e-05   7.1033616e-06   5.6103796e-05   4.1246657e-05   7.6211514e-05   2.0435430e-05   1.1355684e-04   5.0926169e-05  -3.9431214e-04   0.0000000e+00   0.0000000e+00   6.4121260e-05   3.4590306e-05   1.0533453e-04   2.0398436e-04   0.0000000e+00  -3.7262141e-04   0.0000000e+00   0.0000000e+00   4.9029620e-05   0.0000000e+00  -5.0469744e-05   0.0000000e+00   2.2474882e-06  -6.6342364e-04   0.0000000e+00   0.0000000e+00   0.0000000e+00   0.0000000e+00   2.6520996e-05  -2.4461540e-04  -5.4418611e-04   0.0000000e+00   0.0000000e+00   0.0000000e+00   0.0000000e+00   3.2397368e-05   5.1461845e-05   1.0384010e-05   1.8182368e-05   8.3093548e-05   4.7941051e-05  -7.7344087e-06   1.1322282e-04   7.6070723e-05   6.7154840e-05   1.4816826e-05   0.0000000e+00   0.0000000e+00   1.1155954e-04   9.0198586e-05   2.0901694e-05   4.0515984e-05   0.0000000e+00  -3.6440484e-04   0.0000000e+00   0.0000000e+00   2.5073694e-05   0.0000000e+00   3.1392534e-05   0.0000000e+00   6.5931356e-05   2.3121868e-04   0.0000000e+00   0.0000000e+00   0.0000000e+00   0.0000000e+00   8.3219968e-05   8.9579940e-05   2.3215340e-04   0.0000000e+00   0.0000000e+00   0.0000000e+00   0.0000000e+00   2.9323262e-05  -4.6859877e-05   2.1328750e-05  -2.8566898e-05   3.8957382e-05  -5.2702611e-07   1.0149740e-05   4.4316538e-05  -8.6740298e-05   6.5138367e-07  -4.8013133e-05   0.0000000e+00   0.0000000e+00  -3.7939935e-05  -1.1408166e-04  -8.5974803e-05  -2.2022998e-04   0.0000000e+00   3.3279537e-05   0.0000000e+00
   0.0000000e+00  -2.6655940e-05   0.0000000e+00  -9.8372499e-05   0.0000000e+00   4.9530205e-05   4.8415059e-04   0.0000000e+00   0.0000000e+00   0.0000000e+00   0.0000000e+00   2.8254373e-05  -1.1816226e-04   9.9723937e-05   0.0000000e+00   0.0000000e+00   0.0000000e+00   0.0000000e+00  -7.5470155e-06   4.3900515e-05   3.1916967e-05   2.6183418e-05   8.5858194e-05  -4.0095031e-05  -2.5869297e-05   7.9247144e-05   3.4560494e-06  -2.3770314e-05  -2.8076918e-04   0.0000000e+00   0.0000000e+00   5.6181772e-05  -3.1792143e-05  -3.6078457e-05  -9.1747862e-05   0.0000000e+00   1.3670166e-04   0.0000000e+00   0.0000000e+00   5.5078958e-04   0.0000000e+00   4.3268209e-04   0.0000000e+00   1.7502137e-04  -6.6591792e-04   0.0000000e+00   0.0000000e+00   0.0000000e+00   0.0000000e+00   3.8992365e-04   1.8280162e-04  -6.5076304e-04   0.0000000e+00   0.0000000e+00   0.0000000e+00   0.0000000e+00   1.6948171e-04   2.6111581e-04   2.7151321e-04  -1.0951921e-04   2.0169086e-04   4.1773740e-04   2.1507221e-04   3.0616423e-04   2.1928496e-04   3.4020550e-04   1.0325811e-03   0.0000000e+00   0.0000000e+00   9.1037093e-05   2.3528487e-04   1.6747962e-04   2.9984730e-04   0.0000000e+00  -1.4575203e-04   0.0000000e+00   0.0000000e+00  -1.6851963e-04   0.0000000e+00  -1.5256195e-04   0.0000000e+00  -1.6774370e-04   3.3292724e-04   0.0000000e+00   0.0000000e+00   0.0000000e+00   0.0000000e+00  -1.6574919e-04   4.2685033e-04   2.3953039e-05   0.0000000e+00   0.0000000e+00   0.0000000e+00   0.0000000e+00  -3.7583227e-04   9.4571814e-05  -1.0359816e-05  -2.9371398e-04  -1.5069012e-04  -2.3155383e-04  -5.0340942e-04  -3.3653553e-04  -3.8469276e-04  -2.1453685e-04  -5.4444407e-04   0.0000000e+00   0.0000000e+00  -3.4683940e-04  -3.3705236e-04  -3.0350829e-04  -5.6513117e-04   0.0000000e+00   1.9166287e-04   0.0000000e+00   0.0000000e+00  -1.0547227e-04   0.0000000e+00  -9.5261117e-05   0.0000000e+00  -5.0960145e-05  -3.8269782e-04   0.0000000e+00   0.0000000e+00   0.0000000e+00   0.0000000e+00  -4.0847991e-05   3.5235077e-05  -1.0474429e-04   0.0000000e+00   0.0000000e+00   0.0000000e+00   0.0000000e+00  -3.4498708e-05  -3.5940973e-05  -2.6165531e-05  -2.6060712e-05  -7.5296724e-05  -6.3789016e-05  -1.6629720e-06  -8.7328789e-05  -5.0579892e-05  -6.2823552e-05  -2.8524203e-05   0.0000000e+00   0.0000000e+00  -2.1247205e-05   8.3544107e-06  -1.7069380e-05   1.3489068e-05   0.0000000e+00  -2.4360879e-04   0.0000000e+00   0.0000000e+00   6.9732057e-05   0.0000000e+00  -9.8980920e-05   0.0000000e+00   1.0675406e-05  -2.1941554e-04   0.0000000e+00   0.0000000e+00   0.0000000e+00   0.0000000e+00   7.0160804e-05  -3.7907947e-05  -2.7410565e-04   0.0000000e+00   0.0000000e+00   0.0000000e+00   0.0000000e+00  -2.3570408e-05  -1.3865576e-05   1.0657666e-05  -1.5842724e-05  -6.0943962e-05  -3.6446359e-06  -6.2823347e-05  -4.5321864e-05  -2.3569891e-05  -3.2584536e-05  -1.9677671e-04   0.0000000e+00   0.0000000e+00   3.8797772e-05   7.1359098e-06  -3.7528999e-05  -6.7494092e-05   0.0000000e+00  -3.9255954e-04   0.0000000e+00   0.0000000e+00  -3.1903384e-05   0.0000000e+00  -2.3504440e-05   0.0000000e+00   2.5291946e-05   1.4015197e-04   0.0000000e+00   0.0000000e+00   0.0000000e+00   0.0000000e+00  -1.7816106e-05   9.3837397e-06   2.7236569e-04   0.0000000e+00   0.0000000e+00   0.0000000e+00   0.0000000e+00  -3.7531322e-05   1.7056795e-05   1.1141135e-05  -6.3073886e-06   1.0957537e-05  -2.2813273e-05  -3.1589789e-05  -2.3302433e-05  -2.5555836e-05  -5.4547548e-05  -9.5259913e-05   0.0000000e+00   0.0000000e+00   1.8277768e-05  -1.8600279e-05  -2.5911270e-05  -5.0468148e-05   0.0000000e+00   2.4063344e-05   0.0000000e+00   0.0000000e+00  -2.3274539e-04   0.0000000e+00  -1.6180365e-04   0.0000000e+00  -1.4548001e-04   6.0022173e-04   0.0000000e+00   0.0000000e+00   0.0000000e+00   0.0000000e+00  -2.9953924e-04   1.3468552e-04   6.7426026e-04   0.0000000e+00   0.0000000e+00   0.0000000e+00   0.0000000e+00  -3.0805365e-04  -1.5894157e-04  -1.8602683e-04  -1.2688029e-04  -3.0641586e-04  -1.5813059e-04  -1.6152975e-04  -3.7589955e-04  -2.4441727e-04  -1.8713479e-04   9.5454837e-05   0.0000000e+00   0.0000000e+00  -2.9254633e-04  -3.0506163e-04  -5.1514757e-05  -1.4137158e-04   0.0000000e+00   3.0565171e-04   0.0000000e+00   0.0000000e+00  -1.4204612e-04   0.0000000e+00  -9.9860333e-05   0.0000000e+00  -6.6538896e-05  -5.7316807e-04   0.0000000e+00   0.0000000e+00   0.0000000e+00   0.0000000e+00  -1.5356012e-04  -2.6771772e-04  -5.8235360e-04   0.0000000e+00   0.0000000e+00   0.0000000e+00   0.0000000e+00  -1.9954937e-04  -6.7456396e-05  -1.7472641e-04  -1.1429885e-04  -1.5974628e-04  -9.0218516e-05  -9.0092881e-05  -2.3940654e-04  -1.2393958e-04  -1.0824027e-04   3.6979139e-05   0.0000000e+00   0.0000000e+00  -2.0429932e-04  -1.4848997e-04  -4.4331589e-05  -4.1001118e-06   0.0000000e+00   9.3419516e-05   0.0000000e+00   0.0000000e+00   6.7619291e-05   0.0000000e+00   4.5957939e-05   0.0000000e+00   1.0948307e-04   1.4127250e-04   0.0000000e+00   0.0000000e+00   0.0000000e+00   0.0000000e+00   8.2892373e-05   5.7851420e-05  -6.7685032e-05   0.0000000e+00   0.0000000e+00   0.0000000e+00   0.0000000e+00   2.0754954e-04   1.1763762e-04   8.8752229e-05  -8.6875237e-07   3.9446381e-05   2.6573553e-05   7.5025212e-05   1.4793563e-05   1.1856176e-04   4.7449163e-05  -4.9572042e-04   0.0000000e+00   0.0000000e+00   5.7968580e-05   3.1725544e-05   1.0595800e-04   2.0240972e-04   0.0000000e+00  -4.4712498e-04   0.0000000e+00   0.0000000e+00   5.5315181e-05   0.0000000e+00  -4.8131950e-05   0.0000000e+00   6.0534370e-06  -6.7996090e-04   0.0000000e+00   0.0000000e+00   0.0000000e+00   0.0000000e+00   3.6612617e-05  -2.4825569e-04  -5.6400424e-04   0.0000000e+00   0.0000000e+00   0.0000000e+00   0.0000000e+00   4.0945853e-05   5.8045252e-05   1.4481547e-05   2.6586784e-05   8.7247582e-05   5.3553377e-05  -1.5230114e-06   1.1874972e-04   8.1825697e-05   7.1221502e-05   1.1473705e-05   0.0000000e+00   0.0000000e+00   1.1682992e-04   9.0445737e-05   2.2778265e-05   4.3778443e-05   0.0000000e+00  -3.8380587e-04   0.0000000e+00   0.0000000e+00   2.5526174e-05   0.0000000e+00   3.1437143e-05   0.0000000e+00   6.8231862e-05   2.2268682e-04   0.0000000e+00   0.0000000e+00   0.0000000e+00   0.0000000e+00   8.4318302e-05   7.3285207e-05   2.2698404e-04   0.0000000e+00   0.0000000e+00   0.0000000e+00   0.0000000e+00   3.6473579e-05  -4.1446091e-05   2.4438854e-05  -4.1160495e-05   4.0197617e-05   1.1750641e-06   1.5601062e-05   4.0857362e-05  -8.9024832e-05   6.1426173e-07  -4.4492519e-05   0.0000000e+00   0.0000000e+00  -2.9878006e-05  -9.5633538e-05  -8.7946704e-05  -2.1749485e-04   0.0000000e+00   2.4961266e-05   0.0000000e+00
   0.0000000e+00  -3.3925283e-05   0.0000000e+00  -1.0316149e-04   0.0000000e+00   4.4152051e-05   4.5916295e-04   0.0000000e+00   0.0000000e+00   0.0000000e+00   0.0000000e+00   2.0205366e-05  -9.7570560e-05   9.9216762e-05   0.0000000e+00   0.0000000e+00   0.0000000e+00   0.0000000e+00  -1.9625259e-05   3.6673111e-05   2.5583209e-05   1.8806147e-05   7.1659852e-05  -4.2590001e-05  -2.8986206e-05   6.3249769e-05  -3.9328964e-06  -2.9889326e-05  -2.6810493e-04   0.0000000e+00   0.0000000e+00   4.6418241e-05  -3.3843494e-05  -3.6741524e-05  -9.0231019e-05   0.0000000e+00   1.3874920e-04   0.0000000e+00   0.0000000e+00   5.8456830e-04   0.0000000e+00   4.6428155e-04   0.0000000e+00   2.0200638e-04  -7.1221693e-04   0.0000000e+00   0.0000000e+00   0.0000000e+00   0.0000000e+00   4.3135424e-04   2.1274223e-04  -7.0345648e-04   0.0000000e+00   0.0000000e+00   0.0000000e+00   0.0000000e+00   1.7271440e-04   2.6214956e-04   2.8238593e-04  -9.4564555e-05   2.0495481e-04   4.6082405e-04   2.3855433e-04   3.1527595e-04   2.3342503e-04   3.6560764e-04   1.1246019e-03   0.0000000e+00   0.0000000e+00   7.6126972e-05   2.3998264e-04   1.7860724e-04   3.3309680e-04   0.0000000e+00  -1.3990543e-04   0.0000000e+00   0.0000000e+00  -1.7302957e-04   0.0000000e+00  -1.6212026e-04   0.0000000e+00  -1.7419427e-04   3.6498441e-04   0.0000000e+00   0.0000000e+00   0.0000000e+00   0.0000000e+00  -1.9505878e-04   4.4083148e-04   4.3538753e-05   0.0000000e+00   0.0000000e+00   0.0000000e+00   0.0000000e+00  -3.8369453e-04   7.9173058e-05  -3.3239203e-05  -3.0453356e-04  -1.8160140e-04  -2.4104549e-04  -5.1167230e-04  -3.6507827e-04  -4.0661809e-04  -2.2589250e-04  -5.1773569e-04   0.0000000e+00   0.0000000e+00  -3.6108432e-04  -3.4927847e-04  -3.2217076e-04  -5.7332532e-04   0.0000000e+00   2.2865877e-04   0.0000000e+00   0.0000000e+00  -1.0625356e-04   0.0000000e+00  -8.8096246e-05   0.0000000e+00  -5.5862539e-05  -3.9560751e-04   0.0000000e+00   0.0000000e+00   0.0000000e+00   0.0000000e+00  -4.4548516e-05   4.6177300e-05  -9.8115434e-05   0.0000000e+00   0.0000000e+00   0.0000000e+00   0.0000000e+00  -3.5972572e-05  -3.7478416e-05  -2.6346822e-05  -2.7586689e-05  -7.7830972e-05  -6.0939464e-05   3.4706930e-06  -8.8139304e-05  -4.5677416e-05  -5.8803376e-05  -1.2677424e-05   0.0000000e+00   0.0000000e+00  -1.9840721e-05   1.7378979e-05  -1.2732496e-05   2.3452826e-05   0.0000000e+00  -2.6508368e-04   0.0000000e+00   0.0000000e+00   7.9896813e-05   0.0000000e+00  -1.0211237e-04   0.0000000e+00   1.2925701e-05  -2.1338611e-04   0.0000000e+00   0.0000000e+00   0.0000000e+00   0.0000000e+00   7.8681366e-05  -4.8150963e-05  -2.5493188e-04   0.0000000e+00   0.0000000e+00   0.0000000e+00   0.0000000e+00  -2.6614745e-05  -2.0598316e-05   3.0450535e-06  -1.3315906e-05  -7.4156308e-05  -8.2272943e-07  -6.4742289e-05  -6.9320283e-05  -3.6820939e-05  -3.9545081e-05  -2.1382519e-04   0.0000000e+00   0.0000000e+00   1.8341528e-05  -2.3710683e-06  -4.2044369e-05  -6.7448211e-05   0.0000000e+00  -4.0294421e-04   0.0000000e+00   0.0000000e+00  -3.1991991e-05   0.0000000e+00  -1.8839595e-05   0.0000000e+00   2.6701164e-05   1.2363956e-04   0.0000000e+00   0.0000000e+00   0.0000000e+00   0.0000000e+00  -1.5064276e-05   1.5667971e-05   2.7174792e-04   0.0000000e+00   0.0000000e+00   0.0000000e+00   0.0000000e+00  -3.3886660e-05   1.7825424e-05   1.1066717e-05  -6.7797338e-06   8.3233490e-06  -2.0376771e-05  -3.0470160e-05  -2.5030466e-05  -2.6261695e-05  -5.3547921e-05  -7.7597455e-05   0.0000000e+00   0.0000000e+00   1.8040584e-05  -1.8175862e-05  -2.2898801e-05  -4.5415730e-05   0.0000000e+00   2.0858611e-05   0.0000000e+00   0.0000000e+00  -2.3656804e-04   0.0000000e+00  -1.6071880e-04   0.0000000e+00  -1.5384706e-04   5.7359619e-04   0.0000000e+00   0.0000000e+00   0.0000000e+00   0.0000000e+00  -3.1292656e-04   1.4332513e-04   6.8790542e-04   0.0000000e+00   0.0000000e+00   0.0000000e+00   0.0000000e+00  -3.1984175e-04  -1.7340145e-04  -1.9488595e-04  -1.3008128e-04  -3.1625261e-04  -1.6723419e-04  -1.7560825e-04  -3.8536442e-04  -2.5027941e-04  -1.9361477e-04   7.0908137e-05   0.0000000e+00   0.0000000e+00  -2.9588570e-04  -3.0752421e-04  -5.4091491e-05  -1.5085105e-04   0.0000000e+00   2.9913935e-04   0.0000000e+00   0.0000000e+00  -1.5111033e-04   0.0000000e+00  -9.7888252e-05   0.0000000e+00  -8.1023016e-05  -6.0334185e-04   0.0000000e+00   0.0000000e+00   0.0000000e+00   0.0000000e+00  -1.7156104e-04  -2.6917842e-04  -6.2270981e-04   0.0000000e+00   0.0000000e+00   0.0000000e+00   0.0000000e+00  -2.1548615e-04  -8.2780971e-05  -1.8528587e-04  -1.1720291e-04  -1.7653766e-04  -9.2236828e-05  -9.1516978e-05  -2.5548799e-04  -1.2751977e-04  -1.1273269e-04   4.5353714e-05   0.0000000e+00   0.0000000e+00  -2.1884385e-04  -1.5013910e-04  -4.0274538e-05  -2.2619719e-06   0.0000000e+00   9.3468706e-05   0.0000000e+00   0.0000000e+00   6.2192478e-05   0.0000000e+00   4.0913161e-05   0.0000000e+00   1.0145040e-04   1.6585063e-04   0.0000000e+00   0.0000000e+00   0.0000000e+00   0.0000000e+00   6.8239171e-05   4.1485834e-05  -4.8553527e-05   0.0000000e+00   0.0000000e+00   0.0000000e+00   0.0000000e+00   2.0306614e-04   1.0313644e-04   8.3801788e-05  -7.1967036e-06   2.2931537e-05   9.9207343e-06   7.4358967e-05   1.0628045e-05   1.2611171e-04   4.4062649e-05  -6.1075924e-04   0.0000000e+00   0.0000000e+00   5.1999320e-05   3.0210427e-05   1.0483433e-04   1.9806831e-04   0.0000000e+00  -5.2332084e-04   0.0000000e+00   0.0000000e+00   6.0735975e-05   0.0000000e+00  -4.5540816e-05   0.0000000e+00   1.0791235e-05  -6.9204702e-04   0.0000000e+00   0.0000000e+00   0.0000000e+00   0.0000000e+00   4.6989083e-05  -2.5281608e-04  -5.7840212e-04   0.0000000e+00   0.0000000e+00   0.0000000e+00   0.0000000e+00   4.9886633e-05   6.4675985e-05   1.9218459e-05   3.6315522e-05   9.1652147e-05   5.8868740e-05   4.8729737e-06   1.2445122e-04   8.6918933e-05   7.4178174e-05   8.4760541e-07   0.0000000e+00   0.0000000e+00   1.2140076e-04   8.9874139e-05   2.2845537e-05   4.3733785e-05   0.0000000e+00  -3.9928850e-04   0.0000000e+00   0.0000000e+00   2.6218633e-05   0.0000000e+00   3.0377334e-05   0.0000000e+00   6.9769106e-05   2.1020205e-04   0.0000000e+00   0.0000000e+00   0.0000000e+00   0.0000000e+00   8.3606915e-05   5.6066791e-05   2.1983394e-04   0.0000000e+00   0.0000000e+00   0.0000000e+00   0.0000000e+00   4.3803026e-05  -3.4631884e-05   2.7260336e-05  -5.3616029e-05   3.8894249e-05   2.6501772e-06   2.0191027e-05   3.5096437e-05  -9.1727949e-05  -1.1969497e-06  -4.0681792e-05   0.0000000e+00   0.0000000e+00  -2.1742660e-05  -8.0297149e-05  -8.9187379e-05  -2.1301776e-04   0.0000000e+00   1.6276322e-05   0.0000000e+00
   0.0000000e+00  -4.0520796e-05   0.0000000e+00  -1.0669542e-04   0.0000000e+00   3.8266097e-05   4.3156794e-04   0.0000000e+00   0.0000000e+00   0.0000000e+00   0.0000000e+00   1.1973869e-05  -7.6696059e-05   9.8832099e-05   0.0000000e+00   0.0000000e+00   0.0000000e+00   0.0000000e+00  -3.1146843e-05   2.9168314e-05   1.9084470e-05   1.1423313e-05   5.6863840e-05  -4.4877535e-05  -3.1959136e-05   4.6907644e-05  -1.1239859e-05  -3.5749042e-05  -2.5583403e-04   0.0000000e+00   0.0000000e+00   3.6122777e-05  -3.5670685e-05  -3.7287784e-05  -8.8380177e-05   0.0000000e+00   1.3872091e-04   0.0000000e+00   0.0000000e+00   6.1233414e-04   0.0000000e+00   4.9211532e-04   0.0000000e+00   2.2933223e-04  -7.4336585e-04   0.0000000e+00   0.0000000e+00   0.0000000e+00   0.0000000e+00   4.6986415e-04   2.3551765e-04  -7.4679440e-04   0.0000000e+00   0.0000000e+00   0.0000000e+00   0.0000000e+00   1.7231737e-04   2.6003522e-04   2.9113342e-04  -7.8474301e-05   2.0833575e-04   5.0172619e-04   2.5828132e-04   3.2391142e-04   2.4658543e-04   3.8852489e-04   1.1921327e-03   0.0000000e+00   0.0000000e+00   6.0069635e-05   2.4337675e-04   1.8808217e-04   3.6197277e-04   0.0000000e+00  -1.2896304e-04   0.0000000e+00   0.0000000e+00  -1.7098565e-04   0.0000000e+00  -1.6521911e-04   0.0000000e+00  -1.7720900e-04   4.0239656e-04   0.0000000e+00   0.0000000e+00   0.0000000e+00   0.0000000e+00  -2.1712680e-04   4.5631317e-04   6.6363228e-05   0.0000000e+00   0.0000000e+00   0.0000000e+00   0.0000000e+00  -3.8373050e-04   6.5873858e-05  -5.3230635e-05  -3.1014231e-04  -2.0754916e-04  -2.4523839e-04  -5.1324083e-04  -3.8393303e-04  -4.1895887e-04  -2.3068722e-04  -4.7639009e-04   0.0000000e+00   0.0000000e+00  -3.6531071e-04  -3.5507784e-04  -3.3373908e-04  -5.7087719e-04   0.0000000e+00   2.7104492e-04   0.0000000e+00   0.0000000e+00  -1.0588844e-04   0.0000000e+00  -7.9676851e-05   0.0000000e+00  -5.9982806e-05  -4.0752960e-04   0.0000000e+00   0.0000000e+00   0.0000000e+00   0.0000000e+00  -4.7185350e-05   5.6896074e-05  -9.3009616e-05   0.0000000e+00   0.0000000e+00   0.0000000e+00   0.0000000e+00  -3.6132082e-05  -3.7652369e-05  -2.5599005e-05  -2.8385998e-05  -7.8585634e-05  -5.7097512e-05   9.0163187e-06  -8.7139243e-05  -3.9568143e-05  -5.3730173e-05   5.4440210e-06   0.0000000e+00   0.0000000e+00  -1.6895878e-05   2.7148863e-05  -7.9927736e-06   3.3594408e-05   0.0000000e+00  -2.8451941e-04   0.0000000e+00   0.0000000e+00   8.7828040e-05   0.0000000e+00  -1.0515749e-04   0.0000000e+00   1.5906692e-05  -1.9804547e-04   0.0000000e+00   0.0000000e+00   0.0000000e+00   0.0000000e+00   8.6652934e-05  -7.2353874e-05  -2.3489449e-04   0.0000000e+00   0.0000000e+00   0.0000000e+00   0.0000000e+00  -2.8416261e-05  -2.7038070e-05  -4.1564978e-06  -8.2005609e-06  -8.5809886e-05   9.8037080e-07  -6.7301343e-05  -9.1532545e-05  -5.0014403e-05  -4.6977366e-05  -2.3735055e-04   0.0000000e+00   0.0000000e+00  -2.3981714e-06  -1.1994868e-05  -4.7236824e-05  -6.8033734e-05   0.0000000e+00  -4.1239887e-04   0.0000000e+00   0.0000000e+00  -3.1305685e-05   0.0000000e+00  -1.3468835e-05   0.0000000e+00   2.8657672e-05   1.0745934e-04   0.0000000e+00   0.0000000e+00   0.0000000e+00   0.0000000e+00  -1.1156274e-05   2.1498206e-05   2.7030331e-04   0.0000000e+00   0.0000000e+00   0.0000000e+00   0.0000000e+00  -2.8502925e-05   1.9615440e-05   1.1712148e-05  -6.1614061e-06   6.6143375e-06  -1.7260695e-05  -2.9012300e-05  -2.5272550e-05  -2.6113187e-05  -5.1695113e-05  -5.9980557e-05   0.0000000e+00   0.0000000e+00   1.8795700e-05  -1.7077749e-05  -1.9904666e-05  -4.0433027e-05   0.0000000e+00   1.7501094e-05   0.0000000e+00   0.0000000e+00  -2.3792766e-04   0.0000000e+00  -1.5894142e-04   0.0000000e+00  -1.6033894e-04   5.5958012e-04   0.0000000e+00   0.0000000e+00   0.0000000e+00   0.0000000e+00  -3.2273028e-04   1.4899149e-04   7.0490981e-04   0.0000000e+00   0.0000000e+00   0.0000000e+00   0.0000000e+00  -3.2791920e-04  -1.8577419e-04  -2.0175987e-04  -1.3199421e-04  -3.2201854e-04  -1.7504561e-04  -1.8815922e-04  -3.9016710e-04  -2.5387631e-04  -1.9882564e-04   4.0038673e-05   0.0000000e+00   0.0000000e+00  -2.9517069e-04  -3.0859531e-04  -5.6389933e-05  -1.5990058e-04   0.0000000e+00   2.9451465e-04   0.0000000e+00   0.0000000e+00  -1.5896896e-04   0.0000000e+00  -9.6272738e-05   0.0000000e+00  -9.5166873e-05  -6.1209595e-04   0.0000000e+00   0.0000000e+00   0.0000000e+00   0.0000000e+00  -1.8804815e-04  -2.6926481e-04  -6.4803208e-04   0.0000000e+00   0.0000000e+00   0.0000000e+00   0.0000000e+00  -2.2917650e-04  -9.7753657e-05  -1.9432207e-04  -1.1879428e-04  -1.9119583e-04  -9.4881671e-05  -9.2803709e-05  -2.6877117e-04  -1.3017686e-04  -1.1687266e-04   4.4949491e-05   0.0000000e+00   0.0000000e+00  -2.3138924e-04  -1.5101899e-04  -3.6551750e-05  -2.5270552e-06   0.0000000e+00   9.7023112e-05   0.0000000e+00   0.0000000e+00   5.6240727e-05   0.0000000e+00   3.4908546e-05   0.0000000e+00   9.3543370e-05   2.0553613e-04   0.0000000e+00   0.0000000e+00   0.0000000e+00   0.0000000e+00   5.3196679e-05   2.2181072e-05  -2.2086839e-05   0.0000000e+00   0.0000000e+00   0.0000000e+00   0.0000000e+00   1.9702248e-04   8.8334976e-05   7.7517552e-05  -1.1717736e-05   7.1439548e-06  -8.3497774e-06   7.4223023e-05   8.1094083e-06   1.3619721e-04   4.0883259e-05  -7.3595042e-04   0.0000000e+00   0.0000000e+00   4.6469036e-05   3.0525200e-05   1.0230009e-04   1.9130120e-04   0.0000000e+00  -5.9897404e-04   0.0000000e+00   0.0000000e+00   6.4973531e-05   0.0000000e+00  -4.3055754e-05   0.0000000e+00   1.6242901e-05  -7.0085237e-04   0.0000000e+00   0.0000000e+00   0.0000000e+00   0.0000000e+00   5.7174967e-05  -2.5917938e-04  -5.8742998e-04   0.0000000e+00   0.0000000e+00   0.0000000e+00   0.0000000e+00   5.8846763e-05   7.1178759e-05   2.4429431e-05   4.6840738e-05   9.6079499e-05   6.3540504e-05   1.0843062e-05   1.3002494e-04   9.0959210e-05   7.5660876e-05  -1.7362740e-05   0.0000000e+00   0.0000000e+00   1.2507431e-04   8.8480232e-05   2.0949352e-05   4.0001443e-05   0.0000000e+00  -4.1051851e-04   0.0000000e+00   0.0000000e+00   2.7102243e-05   0.0000000e+00   2.8331844e-05   0.0000000e+00   7.0463793e-05   1.9412017e-04   0.0000000e+00   0.0000000e+00   0.0000000e+00   0.0000000e+00   8.0968361e-05   3.8414693e-05   2.1090398e-04   0.0000000e+00   0.0000000e+00   0.0000000e+00   0.0000000e+00   5.0961142e-05  -2.6622943e-05   2.9618696e-05  -6.5362084e-05   3.4806751e-05   3.8808545e-06   2.3774386e-05   2.7006820e-05  -9.4956870e-05  -4.7546710e-06  -3.6818450e-05   0.0000000e+00   0.0000000e+00  -1.4006982e-05  -6.8501843e-05  -8.9440480e-05  -2.0691094e-04   0.0000000e+00   7.4798460e-06   0.0000000e+00
   0.0000000e+00  -4.6252228e-05   0.0000000e+00  -1.0893935e-04   0.0000000e+00   3.2056328e-05   4.0280058e-04   0.0000000e+00   0.0000000e+00   0.0000000e+00   0.0000000e+00   3.8073194e-06  -5.6282663e-05   9.9030059e-05   0.0000000e+00   0.0000000e+00   0.0000000e+00   0.0000000e+00  -4.1799875e-05   2.1598735e-05   1.2586886e-05   4.2353340e-06   4.1906985e-05  -4.6954825e-05  -3.4741683e-05   3.0697178e-05  -1.8295939e-05  -4.1218673e-05  -2.4462629e-04   0.0000000e+00   0.0000000e+00   2.5585841e-05  -3.7286319e-05  -3.7740364e-05  -8.6335618e-05   0.0000000e+00   1.3673240e-04   0.0000000e+00   0.0000000e+00   6.3400810e-04   0.0000000e+00   5.1591298e-04   0.0000000e+00   2.5599309e-04  -7.5800292e-04   0.0000000e+00   0.0000000e+00   0.0000000e+00   0.0000000e+00   5.0407106e-04   2.5131487e-04  -7.7995338e-04   0.0000000e+00   0.0000000e+00   0.0000000e+00   0.0000000e+00   1.6787221e-04   2.5483510e-04   2.9721607e-04  -6.2627305e-05   2.1202557e-04   5.3951265e-04   2.7365788e-04   3.3200476e-04   2.5833773e-04   4.0881684e-04   1.2335464e-03   0.0000000e+00   0.0000000e+00   4.3239571e-05   2.4516206e-04   1.9569210e-04   3.8567124e-04   0.0000000e+00  -1.1173098e-04   0.0000000e+00   0.0000000e+00  -1.6231360e-04   0.0000000e+00  -1.6169237e-04   0.0000000e+00  -1.7652279e-04   4.4517496e-04   0.0000000e+00   0.0000000e+00   0.0000000e+00   0.0000000e+00  -2.3130369e-04   4.7389359e-04   9.2343068e-05   0.0000000e+00   0.0000000e+00   0.0000000e+00   0.0000000e+00  -3.7612223e-04   5.5249418e-05  -6.9735926e-05  -3.1030025e-04  -2.2772445e-04  -2.4400695e-04  -5.0820284e-04  -3.9254668e-04  -4.2128303e-04  -2.2861535e-04  -4.1894949e-04   0.0000000e+00   0.0000000e+00  -3.5958704e-04  -3.5427398e-04  -3.3726554e-04  -5.5699260e-04   0.0000000e+00   3.1736251e-04   0.0000000e+00   0.0000000e+00  -1.0440297e-04   0.0000000e+00  -7.0261882e-05   0.0000000e+00  -6.3228793e-05  -4.1870150e-04   0.0000000e+00   0.0000000e+00   0.0000000e+00   0.0000000e+00  -4.8719161e-05   6.6842597e-05  -8.9956818e-05   0.0000000e+00   0.0000000e+00   0.0000000e+00   0.0000000e+00  -3.4978070e-05  -3.6425599e-05  -2.3890863e-05  -2.8460425e-05  -7.7493243e-05  -5.2358671e-05   1.4859158e-05  -8.4327887e-05  -3.2433237e-05  -4.7731957e-05   2.5305665e-05   0.0000000e+00   0.0000000e+00  -1.2458070e-05   3.7432561e-05  -2.9494733e-06   4.3691350e-05   0.0000000e+00  -3.0177746e-04   0.0000000e+00   0.0000000e+00   9.3271296e-05   0.0000000e+00  -1.0795405e-04   0.0000000e+00   1.9374052e-05  -1.7436073e-04   0.0000000e+00   0.0000000e+00   0.0000000e+00   0.0000000e+00   9.3469263e-05  -1.0995315e-04  -2.1473093e-04   0.0000000e+00   0.0000000e+00   0.0000000e+00   0.0000000e+00  -2.9120730e-05  -3.3106135e-05  -1.0868781e-05  -7.4946687e-07  -9.5653314e-05   1.5207460e-06  -7.0537258e-05  -1.1127093e-04  -6.2750308e-05  -5.4693515e-05  -2.6640415e-04   0.0000000e+00   0.0000000e+00  -2.2904256e-05  -2.1343335e-05  -5.2973861e-05  -6.9286912e-05   0.0000000e+00  -4.2084972e-04   0.0000000e+00   0.0000000e+00  -2.9877038e-05   0.0000000e+00  -7.6263764e-06   0.0000000e+00   3.1054689e-05   9.2109704e-05   0.0000000e+00   0.0000000e+00   0.0000000e+00   0.0000000e+00  -6.2996938e-06   2.6740717e-05   2.6844860e-04   0.0000000e+00   0.0000000e+00   0.0000000e+00   0.0000000e+00  -2.1569938e-05   2.2414978e-05   1.3076430e-05  -4.6368565e-06   5.8288432e-06  -1.3703051e-05  -2.7497454e-05  -2.4112924e-05  -2.5236862e-05  -4.9228693e-05  -4.3670920e-05   0.0000000e+00   0.0000000e+00   2.0481867e-05  -1.5432667e-05  -1.7178089e-05  -3.6032206e-05   0.0000000e+00   1.4103462e-05   0.0000000e+00   0.0000000e+00  -2.3690554e-04   0.0000000e+00  -1.5665469e-04   0.0000000e+00  -1.6483599e-04   5.5932216e-04   0.0000000e+00   0.0000000e+00   0.0000000e+00   0.0000000e+00  -3.2897273e-04   1.5085342e-04   7.2601206e-04   0.0000000e+00   0.0000000e+00   0.0000000e+00   0.0000000e+00  -3.3228699e-04  -1.9586183e-04  -2.0657072e-04  -1.3260163e-04  -3.2378876e-04  -1.8159593e-04  -1.9909496e-04  -3.9051617e-04  -2.5535238e-04  -2.0295510e-04   2.9438496e-06   0.0000000e+00   0.0000000e+00  -2.9066021e-04  -3.0851902e-04  -5.8358329e-05  -1.6856246e-04   0.0000000e+00   2.9194842e-04   0.0000000e+00   0.0000000e+00  -1.6547788e-04   0.0000000e+00  -9.5165667e-05   0.0000000e+00  -1.0863273e-04  -5.9822046e-04   0.0000000e+00   0.0000000e+00   0.0000000e+00   0.0000000e+00  -2.0261074e-04  -2.6791392e-04  -6.5702002e-04   0.0000000e+00   0.0000000e+00   0.0000000e+00   0.0000000e+00  -2.4038548e-04  -1.1214106e-04  -2.0174055e-04  -1.1921655e-04  -2.0328350e-04  -9.8058381e-05  -9.3991211e-05  -2.7898490e-04  -1.3201028e-04  -1.2056708e-04   3.6782815e-05   0.0000000e+00   0.0000000e+00  -2.4165898e-04  -1.5121815e-04  -3.3353474e-05  -4.7985252e-06   0.0000000e+00   1.0391032e-04   0.0000000e+00   0.0000000e+00   4.9611069e-05   0.0000000e+00   2.8063507e-05   0.0000000e+00   8.5811006e-05   2.5847744e-04   0.0000000e+00   0.0000000e+00   0.0000000e+00   0.0000000e+00   3.8159810e-05   7.6823805e-07   1.0978365e-05   0.0000000e+00   0.0000000e+00   0.0000000e+00   0.0000000e+00   1.8961247e-04   7.3660214e-05   6.9850617e-05  -1.4381486e-05  -7.3493017e-06  -2.7737236e-05   7.4657558e-05   7.3424042e-06   1.4865139e-04   3.8076209e-05  -8.6676137e-04   0.0000000e+00   0.0000000e+00   4.1693836e-05   3.3137283e-05   9.8845322e-05   1.8274395e-04   0.0000000e+00  -6.7194962e-04   0.0000000e+00   0.0000000e+00   6.7775262e-05   0.0000000e+00  -4.1037940e-05   0.0000000e+00   2.2127875e-05  -7.0770886e-04   0.0000000e+00   0.0000000e+00   0.0000000e+00   0.0000000e+00   6.6671067e-05  -2.6810984e-04  -5.9134109e-04   0.0000000e+00   0.0000000e+00   0.0000000e+00   0.0000000e+00   6.7427082e-05   7.7382192e-05   2.9905576e-05   5.7531356e-05   1.0025373e-04   6.7229112e-05   1.5785556e-05   1.3511450e-04   9.3573264e-05   7.5362332e-05  -4.2839532e-05   0.0000000e+00   0.0000000e+00   1.2767082e-04   8.6266928e-05   1.7052293e-05   3.2438335e-05   0.0000000e+00  -4.1736995e-04   0.0000000e+00   0.0000000e+00   2.8109756e-05   0.0000000e+00   2.5462650e-05   0.0000000e+00   7.0254142e-05   1.7494146e-04   0.0000000e+00   0.0000000e+00   0.0000000e+00   0.0000000e+00   7.6367788e-05   2.0809331e-05   2.0043393e-04   0.0000000e+00   0.0000000e+00   0.0000000e+00   0.0000000e+00   5.7597103e-05  -1.7692138e-05   3.1339045e-05  -7.5853349e-05   2.7851197e-05   4.8696608e-06   2.6272345e-05   1.6677227e-05  -9.8779474e-05  -9.9288446e-06  -3.3106835e-05   0.0000000e+00   0.0000000e+00  -7.1214775e-06  -6.0403188e-05  -8.8500492e-05  -1.9932263e-04   0.0000000e+00  -1.1860723e-06   0.0000000e+00
