   5.3352284e-05   3.0616793e-05  -5.4160193e-05   2.2022424e-05   1.6823451e-05   4.8672726e-05  -3.9340314e-06  -1.4100380e-05  -4.9614603e-05   1.8819288e-06   3.7489912e-05   3.1251789e-05   2.5892645e-05   2.4147166e-06  -2.4333263e-05  -3.6953110e-05   8.2548199e-06   5.0260348e-06   2.4556780e-05   4.1336928e-05   5.4277459e-05   1.8582231e-05   6.2056116e-05   9.9367328e-07  -2.0623013e-05   1.6171586e-05   9.5997604e-06  -5.4767747e-06  -2.8150345e-05  -1.6283721e-05  -1.4523126e-05   3.8587802e-05  -1.8602371e-05   1.3891836e-05   2.2939996e-06  -1.2930140e-05   3.5195290e-05   4.8048250e-05  -2.2949585e-05   1.4653253e-05   2.2937186e-04   3.1985238e-05   1.7237219e-04   3.8282459e-05  -3.1180869e-04  -4.2526384e-05  -2.0065046e-05  -3.6754031e-05   6.3610232e-05   2.0157719e-05  -2.3863768e-04  -1.6665962e-04  -2.0794600e-04   1.0671811e-05   3.0406360e-05   2.3334334e-05   9.0358118e-05   1.4397972e-04   2.4783409e-04   2.1767117e-04  -1.5454394e-06   1.9843053e-04   3.6241983e-04   1.3955473e-04   2.0728585e-04  -3.5694988e-05  -3.4660521e-06  -3.0124399e-05  -2.8476226e-04   1.2321006e-04   1.7191364e-04   1.3070569e-04  -1.9716071e-05  -2.7644461e-04  -9.0926169e-05  -9.4635827e-05   7.0177521e-06   9.8955443e-05   2.9758643e-05  -1.2873489e-04   9.8790269e-06   8.1781998e-05   1.8947732e-04   1.2675820e-04  -1.0137615e-05  -1.4032003e-05   4.8149953e-05   1.0815209e-04   1.3861217e-04   1.7504602e-04   6.3797885e-05  -8.9802379e-05   3.1386012e-05   1.6048109e-04   8.9767891e-05  -1.6817066e-06  -2.9484321e-05   1.0306592e-05  -1.0088555e-05   2.6528577e-05  -4.3162125e-05   5.8240415e-05   1.1804831e-04   9.1636330e-06  -6.1509687e-05   1.0525910e-04   1.8735383e-04  -2.9727405e-05   2.7536226e-04   2.4742783e-05  -1.2616942e-04   8.1179628e-05   6.2638188e-05   1.0674944e-04  -6.0881943e-05  -6.7587335e-05  -5.1382309e-06  -1.1387725e-04   7.8529577e-05  -3.6747017e-05   9.8100332e-05  -2.2824888e-06  -3.9004164e-05  -6.2816696e-05  -8.9251160e-05  -5.6292017e-05   3.0095987e-05   3.2089024e-05   1.9646706e-05  -7.8770607e-05  -5.6562116e-05  -3.3916618e-05  -6.8579888e-05  -8.4394853e-05  -5.5674435e-05   1.3584117e-05  -5.4020021e-05   6.5280170e-06   1.1587514e-05  -2.9774012e-05  -1.0351613e-05  -9.2514436e-05  -3.7366756e-05   2.3670089e-05  -1.7433419e-05  -7.4473805e-05   5.7988173e-05   4.9229824e-07  -4.1243365e-05   1.8078139e-05  -3.9190535e-05  -1.6393261e-06   4.4935730e-05  -5.8204698e-05   5.5063628e-05  -1.5455957e-04   3.3798770e-05   1.6338448e-05  -7.0730544e-06  -1.0376210e-04  -3.1512833e-05  -1.7535228e-05  -2.5284018e-05   1.2333941e-05  -1.1526360e-04  -4.4939097e-05  -2.1496093e-05   2.8235254e-06   2.4486186e-05   7.1803415e-05   2.0878239e-05  -5.7063775e-05   2.0295302e-05   1.2004104e-04   1.2260742e-05   1.3679012e-04   1.0032423e-04   8.0520019e-05   1.5331098e-04   3.8675272e-06  -2.2146367e-05  -2.5234364e-05  -3.1665404e-05  -4.6604134e-06   2.6754335e-04   9.6260026e-05   1.7647024e-05  -2.5897353e-05  -1.1359880e-05  -3.2435718e-05  -6.5858677e-05   7.2133229e-05   1.2941338e-04   8.7687808e-06   1.2809374e-04  -1.0610211e-05   4.7975268e-05   1.8568746e-05   1.0959619e-05  -2.9940480e-05  -5.0731417e-06  -1.3121466e-05  -2.1535321e-05   1.5948952e-05   1.6151558e-05   2.7963579e-06   2.6213346e-05   1.7174207e-05  -2.2848195e-06   1.7732798e-05   1.0584923e-05   1.2941964e-04   2.6284055e-06   1.0952382e-04   7.3807518e-05   2.2962357e-05   6.5918145e-05  -5.8224953e-05   1.5853626e-05   2.3870678e-05   3.5924995e-05   2.5861271e-06   1.0240525e-04   3.0837578e-05  -1.0577874e-05   3.2823465e-06  -1.1554231e-05  -1.4101333e-05   1.1386767e-04   9.5906756e-05   4.5991021e-05   3.7202621e-05   6.6146528e-05   2.8129405e-05   4.9287386e-05  -1.5465416e-05  -2.3795153e-06   3.4044771e-05   4.6900265e-05   4.2948347e-05   1.4780002e-04   4.3728381e-05   2.7909392e-06  -1.5148287e-06   2.2278775e-05   7.6535041e-05   5.0987904e-05   2.7804095e-05   4.9866841e-05   9.7594292e-05   5.9860579e-05   7.4585457e-05   5.9051019e-05   6.4754833e-05   8.4355306e-05   2.6192310e-05   7.5718840e-06  -2.2971792e-05   1.2915843e-05   6.9267826e-05   1.2362767e-04   3.8986044e-05   1.5826784e-05   1.8035012e-05   8.4773619e-06  -1.2926049e-05  -2.7643318e-05  -1.7189990e-04  -1.3363925e-04  -1.2878032e-04  -5.6460052e-05  -2.6319223e-05  -7.3346268e-05   1.0896848e-05  -9.0967584e-05  -7.9066447e-05  -1.1671136e-04  -7.8212485e-05  -5.5915752e-05  -3.3444638e-05  -7.6463799e-06  -1.3648915e-04  -1.2460898e-04  -1.7390396e-04  -1.5182164e-04  -7.3356139e-05  -1.4167606e-04  -1.4483697e-04  -1.0482927e-04  -2.2033525e-04  -8.3892289e-05  -1.3569486e-04  -1.8611514e-04  -1.8014129e-04  -7.5030496e-05   3.6314214e-05  -6.2678671e-05  -1.8872873e-04  -1.6154935e-04  -7.6745348e-05  -8.0799399e-05  -8.7364371e-05  -1.2391909e-04  -1.3309906e-04  -4.4913860e-05  -1.6465710e-05  -2.4297474e-05  -5.1428403e-05   5.1011372e-06   2.9381055e-05   9.9564432e-05   3.5142716e-05   9.0579208e-06   1.1589077e-06   1.9074707e-05   2.5968790e-05   1.1561077e-04   1.4377417e-04   2.1020301e-05   9.4533971e-07  -1.5353070e-05   4.8372500e-05   4.8623552e-05   4.8594971e-05   7.3269861e-05   1.0299786e-06   2.0797839e-05  -4.3761186e-06   2.6592548e-05   1.7674250e-05   3.7978047e-05   9.7428493e-06   4.7777555e-06  -4.1936847e-05   3.8860849e-05   6.1806662e-05   4.5717373e-05   1.2751172e-05  -7.5203278e-06   9.7831990e-06   6.2320008e-06   7.3400360e-05   4.7240833e-05   6.0189858e-05   2.2521386e-04   7.5328344e-05   2.0113575e-04   1.0072690e-04   2.1629358e-04   6.0211295e-05   8.2913514e-05   2.6254418e-05   8.3742884e-05   1.0643292e-04   1.5998853e-04   1.7850431e-04   7.9770737e-05   9.1032924e-06   1.4775629e-04   2.2165944e-04   1.4577060e-04   1.1575464e-04   1.2011307e-04   2.6435960e-04   6.5697067e-05   2.9966795e-04   2.1291979e-04   1.1020150e-04   1.9476548e-04  -3.6300066e-05   4.9720669e-05   6.8580666e-05   2.3430206e-04   6.2809427e-05   3.2050193e-04   9.9457579e-05   1.7306362e-05   1.6872184e-04   2.7448911e-04   1.7571559e-04   7.8625722e-05  -5.2489522e-06   2.2434778e-05   1.4892660e-04   3.8547479e-05   5.7873316e-05  -3.1902670e-05   6.4216380e-05   3.1951093e-05   3.2776064e-05   7.2461954e-05   7.8664784e-05  -1.0662654e-04  -7.5399245e-06   1.1941693e-04   6.3137516e-05   1.1759638e-04   1.1541183e-04   1.3178232e-04   2.0529890e-04   1.9970771e-04   2.1427592e-05   1.3435913e-04   3.9741019e-05  -8.6033542e-06   6.7850973e-06  -1.5349854e-05   8.7000093e-06   4.6970663e-05  -1.1707521e-05  -8.0685922e-05   2.1446718e-04   7.5566172e-05   2.4337161e-05   1.2097550e-04   6.3042013e-05  -9.2427357e-05  -1.6568853e-04
   5.2568610e-05   2.8864898e-05  -6.4151641e-05   1.7133901e-05   1.4395979e-05   4.8351073e-05  -1.4844255e-06  -1.9623446e-05  -5.9608900e-05  -2.2047247e-06   3.2487551e-05   2.7593866e-05   3.1415119e-05   2.9959299e-06  -2.7941101e-05  -4.3945672e-05   4.9174323e-06   5.6933789e-07   2.1091005e-05   3.9419131e-05   5.5805986e-05   1.5346668e-05   6.4454469e-05  -5.7920289e-06  -2.5042292e-05   1.2496978e-05   4.9171868e-06  -1.2695337e-05  -3.4044248e-05  -2.1253986e-05  -1.5252285e-05   3.5952375e-05  -2.3411785e-05   1.2370844e-05  -1.0147798e-06  -1.5774039e-05   3.7324174e-05   5.1753221e-05  -3.1146892e-05  -1.2450893e-05   2.8518991e-04  -5.3758138e-06   2.1483339e-04   2.1168998e-05  -3.4497220e-04  -5.2006585e-05  -6.4537493e-06  -6.3065261e-05   3.9199091e-05  -1.4136478e-06  -2.5916788e-04  -1.8280645e-04  -2.3923770e-04   6.5246303e-06   1.5465900e-05   2.7317135e-05   8.8589579e-05   1.2786287e-04   2.5659833e-04   2.7169523e-04  -1.8869130e-05   2.3506308e-04   4.1518899e-04   1.6405269e-04   2.5356448e-04  -5.7530714e-05  -3.1773208e-07  -4.0016081e-05  -3.1088709e-04   1.1743296e-04   2.4093896e-04   1.5367138e-04  -2.8579359e-05  -3.1074502e-04  -1.1116706e-04  -1.1447269e-04   1.0605097e-05   8.2156557e-05   4.4683825e-05  -1.3638177e-04   1.4926826e-05   9.8901231e-05   2.2935229e-04   1.4655418e-04   3.5793552e-06  -1.7146744e-05   5.5519265e-05   1.2719199e-04   1.5630241e-04   2.1510868e-04   9.2413580e-05  -8.6020802e-05   4.3800673e-05   1.8697723e-04   9.9834804e-05   1.6047343e-05  -2.7836869e-05   1.1822240e-05  -1.0359970e-05   2.5991633e-05  -3.8933542e-05   7.5096320e-05   1.4153493e-04   1.3288271e-05  -6.5480643e-05   9.9439414e-05   1.9939475e-04  -1.9971831e-05   3.3759177e-04   2.5327864e-05  -1.4218565e-04   1.1410919e-04   4.8482871e-05   9.1072012e-05  -5.7668971e-05  -6.8096161e-05  -1.8544452e-05  -1.3580586e-04   6.6649483e-05  -4.5688415e-05   1.0236330e-04  -6.1613726e-06  -4.0440332e-05  -7.3768221e-05  -1.0447938e-04  -6.9400832e-05   3.5719424e-05   2.8911983e-05   1.6093435e-05  -8.7833252e-05  -7.0493125e-05  -4.6529403e-05  -8.2396054e-05  -1.0174090e-04  -7.0160112e-05   2.8540841e-06  -6.4657441e-05  -3.1681989e-06   3.8729715e-06  -3.9692727e-05  -2.4720433e-05  -1.0394535e-04  -4.2879707e-05   2.5180210e-05  -2.0476209e-05  -8.6540395e-05   5.3407215e-05  -6.6257549e-06  -4.6925207e-05   1.6781218e-05  -4.9788082e-05  -3.7798586e-06   5.0735430e-05  -6.9099406e-05   7.3366546e-05  -1.6695450e-04   4.3695444e-05   1.9538497e-05  -9.8698061e-06  -1.1384458e-04  -1.8539912e-05  -1.7959604e-05  -2.6434132e-05   1.4232916e-05  -1.1857248e-04  -5.5208377e-05  -3.0364304e-05   9.0052347e-06   2.8755244e-05   7.9463014e-05   2.3884105e-05  -6.3452095e-05   1.9896380e-05   1.4104149e-04   1.2349017e-05   1.6351999e-04   1.2718399e-04   8.4725195e-05   1.6383764e-04   4.3101913e-06  -1.9768258e-05  -2.6363151e-05  -4.7874702e-05  -8.0439211e-06   2.8785265e-04   1.0346635e-04   1.8413739e-05  -4.1366781e-05  -2.2015038e-05  -3.7607449e-05  -6.6114439e-05   7.5510757e-05   1.4705864e-04  -2.4893066e-06   1.3622707e-04  -1.9122249e-05   5.3424379e-05   2.7731718e-05   1.8287548e-05  -3.9441466e-05  -1.6762464e-05  -2.4021025e-05  -1.7441722e-05   1.8798610e-05   1.9008622e-05   5.4875295e-06   2.0586135e-05   1.2895181e-05  -1.0282934e-05   7.4363931e-06   1.0394588e-06   1.3255138e-04  -3.6959079e-06   1.1263367e-04   7.5245719e-05   2.0124338e-05   6.2779177e-05  -6.9359993e-05   2.1386753e-05   2.6334576e-05   4.4467462e-05  -6.6429359e-06   1.0989766e-04   2.7542333e-05  -1.4284402e-05   3.8217277e-06  -1.2460070e-05  -1.3657418e-05   1.2238959e-04   1.0679669e-04   4.5624059e-05   3.8501734e-05   7.1082506e-05   2.6676443e-05   5.4596185e-05  -1.8363830e-05  -4.9426746e-06   3.8439164e-05   4.8011541e-05   4.6081147e-05   1.6036219e-04   4.8536562e-05   2.1731780e-06   1.0708414e-07   2.3082788e-05   8.0641447e-05   5.3449079e-05   2.8408162e-05   5.1825231e-05   1.0369315e-04   5.8950144e-05   7.5550929e-05   6.0176123e-05   6.8791141e-05   8.8269570e-05   2.9468810e-05   6.9260426e-06  -2.6432758e-05   1.4227754e-05   7.2348266e-05   1.2724046e-04   4.0702766e-05   1.6770283e-05   1.8251256e-05   1.1983078e-05  -5.1651600e-06  -2.4985531e-05  -1.8614451e-04  -1.3348321e-04  -1.1667234e-04  -5.7629125e-05  -3.1600825e-05  -6.9574819e-05   2.1585865e-05  -9.1117173e-05  -7.4566417e-05  -1.2300812e-04  -8.3549179e-05  -5.6828698e-05  -3.0215884e-05   2.0964233e-06  -1.3561632e-04  -1.2184037e-04  -1.8696281e-04  -1.6336917e-04  -7.8961462e-05  -1.6126995e-04  -1.6609497e-04  -1.2182817e-04  -2.4897995e-04  -1.0165582e-04  -1.4462761e-04  -2.0161733e-04  -1.9033530e-04  -7.2442360e-05   4.2124617e-05  -5.7553244e-05  -2.0445012e-04  -1.6592575e-04  -7.8477309e-05  -7.9064212e-05  -8.6263812e-05  -1.3581028e-04  -1.5258977e-04  -5.3866275e-05  -2.1103188e-05  -2.8589836e-05  -5.9237789e-05  -2.8994212e-07   2.6688432e-05   1.0907578e-04   3.2208093e-05   9.6929244e-06  -1.8246195e-06   1.3311896e-05   2.3653054e-05   1.2869367e-04   1.5717496e-04   1.8886313e-05  -3.3058328e-06  -2.2830734e-05   4.9549939e-05   5.0468574e-05   4.9579565e-05   8.0655740e-05  -2.1126141e-06   1.6518990e-05  -7.3885649e-06   2.4018620e-05   1.4316673e-05   3.3999440e-05   6.1407482e-06   1.9654182e-06  -5.2778487e-05   4.3246764e-05   6.5903363e-05   4.8872026e-05   8.0123384e-06  -1.3712444e-05   4.9182223e-06   7.2327869e-07   7.4192827e-05   6.5073728e-05   8.0088672e-05   2.2942813e-04   7.9501585e-05   2.0842807e-04   1.1014932e-04   2.5441217e-04   7.5380065e-05   9.3381576e-05   3.1804734e-05   8.2938389e-05   1.1612800e-04   1.9443056e-04   2.2502416e-04   1.0538523e-04   7.7698340e-06   1.5494398e-04   2.5145294e-04   1.5530942e-04   1.2620458e-04   1.3246110e-04   2.7236000e-04   7.9604645e-05   3.0886542e-04   2.1608930e-04   1.1861867e-04   2.0728151e-04  -3.0796050e-05   6.6662897e-05   8.3094772e-05   2.9826024e-04   6.5042251e-05   3.5067020e-04   1.0398556e-04   2.5072955e-05   2.0923942e-04   3.3252817e-04   2.2682616e-04   8.8485485e-05  -1.2021683e-06   2.0124436e-05   1.6671094e-04   3.7338216e-05   5.7020301e-05  -4.7267561e-05   5.7356890e-05   3.7081667e-05   3.5351582e-05   7.4681020e-05   7.7602366e-05  -1.1094289e-04  -2.0227892e-05   1.2931163e-04   7.3822394e-05   1.2535231e-04   1.1702691e-04   1.3833653e-04   2.1963618e-04   2.1435634e-04   2.3859050e-05   1.4997477e-04   5.2024603e-05  -1.0573305e-05   1.0912675e-06  -2.7220917e-05   1.0016667e-05   5.7805979e-05  -2.3277647e-05  -9.6455858e-05   2.2361442e-04   7.2032472e-05   1.6103396e-05   1.2893753e-04   6.1792724e-05  -1.1037057e-04  -1.8558803e-04
   4.9607739e-05   2.5540102e-05  -7.3601853e-05   1.0761245e-05   1.1073634e-05   4.6070569e-05   1.7511312e-06  -2.5150506e-05  -6.9363415e-05  -7.0877314e-06   2.5141164e-05   2.2049947e-05   3.6875013e-05   3.8549194e-06  -3.0901274e-05  -5.0796403e-05   6.9357670e-07  -4.8596585e-06   1.5948470e-05   3.5475543e-05   5.5308857e-05   1.0887102e-05   6.4857929e-05  -1.3846860e-05  -2.9452439e-05   7.5203353e-06  -1.0204440e-06  -2.1025979e-05  -3.9752816e-05  -2.6056709e-05  -1.4715572e-05   3.1178979e-05  -2.8437370e-05   1.0073443e-05  -4.7711009e-06  -1.8235223e-05   3.9160939e-05   5.4562449e-05  -3.9046547e-05  -4.2422359e-05   3.4051261e-04  -4.5748691e-05   2.5734700e-04  -3.4279479e-07  -3.6859850e-04  -6.1340575e-05   9.4387979e-06  -9.0383119e-05   9.3564213e-06  -2.6548725e-05  -2.7625856e-04  -1.9355734e-04  -2.6525150e-04   2.1592636e-06  -2.0110537e-06   3.1046571e-05   8.3609050e-05   1.0416214e-04   2.5800263e-04   3.2490479e-04  -3.7593765e-05   2.6771180e-04   4.6214808e-04   1.8557859e-04   2.9720375e-04  -8.0143409e-05   4.1383845e-06  -5.0559158e-05  -3.3049042e-04   1.0566341e-04   3.1064500e-04   1.7432303e-04  -3.6882701e-05  -3.3807627e-04  -1.3037571e-04  -1.3348310e-04   1.5202222e-05   5.3886567e-05   5.7939881e-05  -1.3978613e-04   2.1236111e-05   1.1644823e-04   2.7055433e-04   1.6629888e-04   1.9691214e-05  -1.8770767e-05   6.4429558e-05   1.4601328e-04   1.6586793e-04   2.5625073e-04   1.2334304e-04  -7.6457894e-05   5.7388262e-05   2.0858030e-04   1.0532563e-04   3.6027370e-05  -2.6346884e-05   1.2197570e-05  -9.5640098e-06   1.9964477e-05  -3.1427752e-05   9.2795771e-05   1.6086381e-04   1.7913333e-05  -6.7602123e-05   9.0724461e-05   2.0870821e-04  -8.7661429e-06   3.8812097e-04   2.4783637e-05  -1.5553207e-04   1.4992477e-04   3.7992424e-05   7.0886330e-05  -5.3646873e-05  -6.7709585e-05  -3.5185322e-05  -1.5575644e-04   4.6896735e-05  -5.4936027e-05   1.0316024e-04  -1.1028664e-05  -4.0886747e-05  -8.3788659e-05  -1.1869837e-04  -8.2605473e-05   4.1798078e-05   2.3576471e-05   1.1281497e-05  -9.5498663e-05  -8.4233579e-05  -6.0314886e-05  -9.6199907e-05  -1.1876576e-04  -8.5595178e-05  -1.2694765e-05  -7.5209779e-05  -1.6505420e-05  -6.8542240e-06  -5.0477025e-05  -4.1813401e-05  -1.1319785e-04  -4.8073784e-05   2.5501298e-05  -2.3815258e-05  -9.8095447e-05   4.4763870e-05  -1.5498648e-05  -5.2315812e-05   1.4597042e-05  -6.1127037e-05  -6.2435842e-06   5.7361219e-05  -7.8369949e-05   9.3984827e-05  -1.7479062e-04   5.4072995e-05   2.3172037e-05  -1.3893374e-05  -1.2293750e-04  -2.2864823e-06  -1.6858190e-05  -2.5737470e-05   1.6724833e-05  -1.1811281e-04  -6.6332638e-05  -4.0719947e-05   1.6900452e-05   3.3279235e-05   8.6113748e-05   2.7473600e-05  -6.8148456e-05   1.9204704e-05   1.6178352e-04   1.2699059e-05   1.9087919e-04   1.5575974e-04   8.7574128e-05   1.7144241e-04   5.6598847e-06  -1.6115983e-05  -2.7265305e-05  -6.5961931e-05  -1.0229862e-05   3.0306503e-04   1.0908347e-04   1.9717556e-05  -5.8477491e-05  -3.4313931e-05  -4.2870101e-05  -6.2220956e-05   7.6675860e-05   1.6182404e-04  -1.6488682e-05   1.4136970e-04  -2.8507985e-05   5.8187324e-05   3.7277487e-05   2.6350607e-05  -4.9067413e-05  -3.0159370e-05  -3.6034931e-05  -1.2772814e-05   2.0953977e-05   2.1550002e-05   8.4684037e-06   1.2765295e-05   7.2367016e-06  -1.9869771e-05  -5.6197760e-06  -1.0714397e-05   1.3206148e-04  -1.1077815e-05   1.1231867e-04   7.3601063e-05   1.5820785e-05   5.6565151e-05  -7.9530619e-05   2.7277830e-05   2.8184100e-05   5.2661735e-05  -1.8118630e-05   1.1414675e-04   2.2623458e-05  -1.7941177e-05   3.8004600e-06  -1.3107525e-05  -1.3129248e-05   1.2720876e-04   1.1518699e-04   4.3255764e-05   3.7503746e-05   7.3881333e-05   2.3741441e-05   5.7901028e-05  -2.2108327e-05  -7.8858074e-06   4.1857730e-05   4.7242128e-05   4.7920490e-05   1.6994185e-04   5.2081958e-05   8.2193765e-07   2.3457907e-06   2.3554267e-05   8.2528414e-05   5.4465544e-05   2.8470344e-05   5.2792686e-05   1.0716568e-04   5.5651947e-05   7.4002987e-05   5.9974715e-05   7.1238179e-05   8.9832947e-05   3.2180674e-05   6.0917397e-06  -3.0078899e-05   1.4054888e-05   7.3728433e-05   1.2745310e-04   4.1244356e-05   1.7088160e-05   1.7521200e-05   1.5321393e-05   4.0645861e-06  -2.1908335e-05  -1.9703699e-04  -1.2987199e-04  -9.9938226e-05  -5.7456096e-05  -3.7359404e-05  -6.1868930e-05   3.3366019e-05  -8.9242755e-05  -6.7850745e-05  -1.2747293e-04  -8.7548646e-05  -5.8291916e-05  -2.5965861e-05   1.3025465e-05  -1.3055821e-04  -1.1531704e-04  -1.9585992e-04  -1.7197193e-04  -8.3717969e-05  -1.7962923e-04  -1.8630089e-04  -1.3866656e-04  -2.7561234e-04  -1.2012943e-04  -1.5099409e-04  -2.1365364e-04  -1.9685606e-04  -6.7702806e-05   4.6216271e-05  -5.0595935e-05  -2.1725187e-04  -1.6572417e-04  -7.8426702e-05  -7.5499349e-05  -8.2772786e-05  -1.4675076e-04  -1.7085523e-04  -6.3176220e-05  -2.6518659e-05  -3.2885984e-05  -6.7489413e-05  -7.1642934e-06   2.2305103e-05   1.1639267e-04   2.8091498e-05   1.0032257e-05  -5.8532263e-06   5.8224122e-06   1.9518734e-05   1.4029320e-04   1.6876143e-04   1.5287602e-05  -8.4545187e-06  -3.1194596e-05   4.8529727e-05   5.0670189e-05   4.8733467e-05   8.6532530e-05  -6.7828477e-06   1.0428757e-05  -1.1585835e-05   1.9773065e-05   9.4156186e-06   2.7908784e-05   1.0894743e-06  -1.6490227e-06  -6.3287537e-05   4.5514110e-05   6.8072179e-05   5.0243254e-05   1.8306465e-06  -2.1147810e-05  -1.8515288e-06  -6.4708506e-06   7.1985290e-05   8.0926781e-05   9.8887421e-05   2.2765822e-04   8.2224941e-05   2.0999694e-04   1.1699005e-04   2.9234223e-04   9.3434210e-05   1.0296716e-04   3.7229145e-05   8.0250812e-05   1.2361237e-04   2.2725454e-04   2.7255088e-04   1.3286325e-04   7.2940101e-06   1.5922779e-04   2.7664595e-04   1.6151617e-04   1.3459061e-04   1.4256439e-04   2.7260134e-04   9.2410730e-05   3.0955420e-04   2.1569462e-04   1.2555520e-04   2.1661476e-04  -2.2583953e-05   8.4689849e-05   9.9837947e-05   3.6463641e-04   6.5719957e-05   3.7330895e-04   1.0642059e-04   3.3793427e-05   2.5113134e-04   3.8949120e-04   2.7849684e-04   9.7146508e-05   5.0895469e-06   1.6812042e-05   1.8335729e-04   3.4343756e-05   5.3730044e-05  -6.3217013e-05   4.7808870e-05   4.1580947e-05   3.7839145e-05   7.4410840e-05   7.3702122e-05  -1.1114115e-04  -3.4002546e-05   1.3690355e-04   8.3962309e-05   1.3037495e-04   1.1477450e-04   1.4120267e-04   2.2893786e-04   2.2399167e-04   2.6568740e-05   1.6366406e-04   6.5728658e-05  -1.2043201e-05  -5.2222046e-06  -4.0341542e-05   1.2009293e-05   6.8783842e-05  -3.3928836e-05  -1.0945750e-04   2.2682316e-04   6.4476237e-05   5.9318257e-06   1.3421746e-04   5.9409542e-05  -1.2573072e-04  -2.0174234e-04
   4.4558553e-05   2.0700006e-05  -8.2184686e-05   3.1341563e-06   7.0151173e-06   4.1895371e-05   5.6931542e-06  -3.0391574e-05  -7.8557293e-05  -1.2644397e-05   1.5660261e-05   1.4772796e-05   4.2143226e-05   4.9951818e-06  -3.3080052e-05  -5.7324846e-05  -4.2805336e-06  -1.1132758e-05   9.2326580e-06   2.9589571e-05   5.2726582e-05   5.3651748e-06   6.3247413e-05  -2.2926471e-05  -3.3682251e-05   1.3762995e-06  -8.0768615e-06  -3.0237863e-05  -4.5072008e-05  -3.0430630e-05  -1.2804338e-05   2.4372084e-05  -3.3573566e-05   7.0765781e-06  -8.8052846e-06  -2.0204581e-05   4.0806661e-05   5.6469291e-05  -4.6478588e-05  -7.3299028e-05   3.9288743e-04  -8.6556691e-05   2.9762537e-04  -2.5358812e-05  -3.8145712e-04  -6.9801821e-05   2.6762792e-05  -1.1727854e-04  -2.4390530e-05  -5.4196988e-05  -2.8974299e-04  -1.9829463e-04  -2.8470753e-04  -2.0846570e-06  -2.1317233e-05   3.4058641e-05   7.5839025e-05   7.4096141e-05   2.5239974e-04   3.7438935e-04  -5.6522672e-05   2.9441367e-04   5.0127211e-04   2.0257365e-04   3.3524247e-04  -1.0234754e-04   9.9151907e-06  -6.0980807e-05  -3.4263228e-04   8.8520911e-05   3.7616142e-04   1.9138391e-04  -4.3895782e-05  -3.5721597e-04  -1.4725884e-04  -1.5047166e-04   2.0151154e-05   1.3515323e-05   6.7684391e-05  -1.3948882e-04   2.8455917e-05   1.3376535e-04   3.1115336e-04   1.8545003e-04   3.7182594e-05  -1.8913189e-05   7.5025262e-05   1.6380090e-04   1.6321925e-04   2.9599344e-04   1.5487198e-04  -6.0941071e-05   7.2103741e-05   2.2304485e-04   1.0528313e-04   5.7329438e-05  -2.4953465e-05   1.0733182e-05  -7.5463868e-06   6.6170020e-06  -2.0962073e-05   1.1061316e-04   1.7393213e-04   2.2579308e-05  -6.8049536e-05   7.9793223e-05   2.1447904e-04   3.3079668e-06   4.2061330e-04   2.3177684e-05  -1.6568134e-04   1.8648044e-04   3.3607015e-05   4.7538117e-05  -4.9501021e-05  -6.6850151e-05  -5.4474569e-05  -1.7269212e-04   1.9765261e-05  -6.4142866e-05   1.0049524e-04  -1.6782214e-05  -4.0387183e-05  -9.2367711e-05  -1.3127255e-04  -9.5318975e-05   4.8162720e-05   1.6339605e-05   5.5729241e-06  -1.0150328e-04  -9.7095920e-05  -7.4681366e-05  -1.0949825e-04  -1.3479352e-04  -1.0155732e-04  -3.2884781e-05  -8.5348420e-05  -3.3307216e-05  -2.0335947e-05  -6.1711178e-05  -6.0976632e-05  -1.1980379e-04  -5.2806770e-05   2.4513395e-05  -2.7439085e-05  -1.0870145e-04   3.2365067e-05  -2.5850744e-05  -5.7277393e-05   1.1742725e-05  -7.2964404e-05  -8.9601321e-06   6.4917037e-05  -8.5663480e-05   1.1656949e-04  -1.7794051e-04   6.4510941e-05   2.7171777e-05  -1.9209911e-05  -1.3106432e-04   1.6647945e-05  -1.4142417e-05  -2.3102200e-05   1.9812744e-05  -1.1395877e-04  -7.8093064e-05  -5.2253556e-05   2.6365798e-05   3.7875676e-05   9.1654345e-05   3.1687608e-05  -7.0993361e-05   1.8357559e-05   1.8174466e-04   1.3397316e-05   2.1823733e-04   1.8521101e-04   8.9281166e-05   1.7631942e-04   7.9997935e-06  -1.1338864e-05  -2.8050001e-05  -8.5224523e-05  -1.0894749e-05   3.1351065e-04   1.1318749e-04   2.1707288e-05  -7.6427418e-05  -4.7946166e-05  -4.8263227e-05  -5.4089853e-05   7.5764962e-05   1.7299261e-04  -3.2633480e-05   1.4359778e-04  -3.8350469e-05   6.2240717e-05   4.6752932e-05   3.4800583e-05  -5.8346363e-05  -4.4670692e-05  -4.8609399e-05  -8.1312119e-06   2.2157895e-05   2.3645611e-05   1.1650180e-05   3.1165849e-06   4.4477284e-07  -3.0731660e-05  -2.0942555e-05  -2.4240127e-05   1.2823613e-04  -1.9230516e-05   1.0879344e-04   6.8896465e-05   1.0208778e-05   4.7585425e-05  -8.8248393e-05   3.3315216e-05   2.9405777e-05   6.0095313e-05  -3.1602177e-05   1.1480114e-04   1.6355817e-05  -2.1365552e-05   3.0945583e-06  -1.3481324e-05  -1.2758588e-05   1.2789721e-04   1.2063644e-04   3.9031347e-05   3.3893340e-05   7.4283590e-05   1.9368300e-05   5.8924944e-05  -2.6822678e-05  -1.1035383e-05   4.4100277e-05   4.4549778e-05   4.8357897e-05   1.7635869e-04   5.4259029e-05  -1.2957900e-06   5.1709953e-06   2.3685923e-05   8.2274909e-05   5.4069674e-05   2.8032713e-05   5.2820802e-05   1.0784458e-04   4.9980510e-05   7.0034920e-05   5.8672357e-05   7.2089731e-05   8.9141425e-05   3.4230036e-05   5.1957811e-06  -3.3843668e-05   1.2192805e-05   7.3407955e-05   1.2457622e-04   4.0624009e-05   1.6666649e-05   1.5849390e-05   1.8343054e-05   1.4366257e-05  -1.9255467e-05  -2.0489386e-04  -1.2355526e-04  -8.0333551e-05  -5.6410557e-05  -4.3836075e-05  -5.0702663e-05   4.5738629e-05  -8.5894030e-05  -5.9845784e-05  -1.3076316e-04  -9.0646425e-05  -6.1162888e-05  -2.1369605e-05   2.4360839e-05  -1.2194801e-04  -1.0600792e-04  -2.0085618e-04  -1.7792551e-04  -8.8016448e-05  -1.9662660e-04  -2.0520183e-04  -1.5528109e-04  -2.9979906e-04  -1.3875089e-04  -1.5520731e-04  -2.2248802e-04  -2.0011625e-04  -6.1402521e-05   4.8208961e-05  -4.2935060e-05  -2.2743690e-04  -1.6159710e-04  -7.7086434e-05  -7.0864894e-05  -7.7691408e-05  -1.5718858e-04  -1.8769967e-04  -7.2825084e-05  -3.2875846e-05  -3.7177332e-05  -7.6271203e-05  -1.5440211e-05   1.6331820e-05   1.2099592e-04   2.2807289e-05   1.0012636e-05  -1.0920444e-05  -3.2315632e-06   1.3545234e-05   1.5010824e-04   1.7835917e-04   1.0061325e-05  -1.4449997e-05  -4.0363220e-05   4.5168600e-05   4.9116661e-05   4.5926410e-05   9.0544404e-05  -1.3201197e-05   2.5673126e-06  -1.7104953e-05   1.3932173e-05   2.9735836e-06   1.9819837e-05  -5.4415584e-06  -6.0174680e-06  -7.3211316e-05   4.5119188e-05   6.8009434e-05   4.9635368e-05  -5.7099870e-06  -2.9868322e-05  -1.0700396e-05  -1.5574072e-05   6.6798079e-05   9.3720572e-05   1.1556032e-04   2.2121230e-04   8.3483715e-05   2.0687769e-04   1.2102421e-04   3.2952694e-04   1.1464834e-04   1.1165733e-04   4.2199675e-05   7.6175298e-05   1.2872879e-04   2.5699813e-04   3.1961030e-04   1.6157986e-04   7.9889643e-06   1.6098473e-04   2.9664018e-04   1.6456034e-04   1.4073497e-04   1.5032952e-04   2.6651494e-04   1.0354594e-04   3.0295159e-04   2.1335840e-04   1.3136078e-04   2.2360937e-04  -1.2153517e-05   1.0321671e-04   1.1895937e-04   4.3118051e-04   6.4915692e-05   3.8877828e-04   1.0719448e-04   4.3201004e-05   2.9343079e-04   4.4333309e-04   3.2852669e-04   1.0434553e-04   1.3602097e-05   1.2766718e-05   1.9875922e-04   2.9718000e-05   4.8204474e-05  -7.9124388e-05   3.6125537e-05   4.5370094e-05   4.0279595e-05   7.1658807e-05   6.7211855e-05  -1.0739069e-04  -4.8346565e-05   1.4196312e-04   9.3297089e-05   1.3271059e-04   1.0884328e-04   1.4045408e-04   2.3308274e-04   2.2847569e-04   2.9542417e-05   1.7509760e-04   8.0448306e-05  -1.3009863e-05  -1.1886123e-05  -5.4384268e-05   1.4660965e-05   7.9383075e-05  -4.2916188e-05  -1.1908311e-04   2.2423482e-04   5.2967949e-05  -5.7633558e-06   1.3666601e-04   5.6171370e-05  -1.3770826e-04  -2.1364157e-04
   3.7574858e-05   1.4450092e-05  -8.9622330e-05  -5.4942983e-06   2.3962478e-06   3.5951972e-05   1.0208643e-05  -3.5082474e-05  -8.6893134e-05  -1.8736171e-05   4.3210349e-06   5.9714592e-06   4.7113272e-05   6.3829193e-06  -3.4404547e-05  -6.3368261e-05  -9.8502818e-06  -1.8109106e-05   1.0938029e-06   2.1910764e-05   4.8070527e-05  -1.0264752e-06   5.9667485e-05  -3.2752316e-05  -3.7557410e-05  -5.7706660e-06  -1.6093960e-05  -4.0072497e-05  -4.9822752e-05  -3.4144994e-05  -9.5376072e-06   1.5712561e-05  -3.8729599e-05   3.4752291e-06  -1.2952885e-05  -2.1636449e-05   4.2328007e-05   5.7480832e-05  -5.3446453e-05  -1.0315121e-04   4.3998957e-04  -1.2534703e-04   3.3326698e-04  -5.2768121e-05  -3.8294667e-04  -7.6590640e-05   4.4633431e-05  -1.4237122e-04  -6.0322492e-05  -8.3222709e-05  -2.9935552e-04  -1.9675074e-04  -2.9674036e-04  -5.9056798e-06  -4.1761159e-05   3.5845379e-05   6.5815456e-05   3.9183447e-05   2.4045157e-04   4.1721987e-04  -7.4428349e-05   3.1348149e-04   5.3084416e-04   2.1363696e-04   3.6484350e-04  -1.2296586e-04   1.6963295e-05  -7.0379985e-05  -3.4649282e-04   6.6923024e-05   4.3256739e-04   2.0370871e-04  -4.8920232e-05  -3.6738258e-04  -1.6050554e-04  -1.6417277e-04   2.4502126e-05  -3.9112406e-05   7.2093600e-05  -1.3644041e-04   3.6064601e-05   1.5007239e-04   3.4879171e-04   2.0332521e-04   5.4836239e-05  -1.7830192e-05   8.7229600e-05   1.7960994e-04   1.4412932e-04   3.3139659e-04   1.8502673e-04  -3.9607556e-05   8.7893078e-05   2.2826664e-04   9.9013916e-05   7.8925979e-05  -2.3428061e-05   6.7060701e-06  -4.2568026e-06  -1.5754596e-05  -8.1159475e-06   1.2773525e-04   1.7884230e-04   2.6677161e-05  -6.7163579e-05   6.7304434e-05   2.1557599e-04   1.5677342e-05   4.2941453e-04   2.0661724e-05  -1.7232192e-04   2.2124439e-04   3.7175203e-05   2.2375418e-05  -4.5847366e-05  -6.5905467e-05  -7.5625093e-05  -1.8573167e-04  -1.3722828e-05  -7.2929702e-05   9.4539978e-05  -2.3271071e-05  -3.9023622e-05  -9.9044721e-05  -1.4159953e-04  -1.0692714e-04   5.4568101e-05   7.5771074e-06  -6.0003245e-07  -1.0564142e-04  -1.0841004e-04  -8.8959470e-05  -1.2177858e-04  -1.4916049e-04  -1.1756024e-04  -5.7215385e-05  -9.4748149e-05  -5.3182916e-05  -3.6096995e-05  -7.2918442e-05  -8.1408927e-05  -1.2340890e-04  -5.6952548e-05   2.2163133e-05  -3.1343027e-05  -1.1790607e-04   1.6762331e-05  -3.7310803e-05  -6.1666051e-05   8.4807915e-06  -8.5042468e-05  -1.1868404e-05   7.3423824e-05  -9.0788948e-05   1.4070277e-04  -1.7651373e-04   7.4602677e-05   3.1440944e-05  -2.5763587e-05  -1.3823161e-04   3.7577157e-05  -9.8243333e-06  -1.8555334e-05   2.3444564e-05  -1.0632162e-04  -9.0197064e-05  -6.4525716e-05   3.7161690e-05   4.2327585e-05   9.6035849e-05   3.6522595e-05  -7.1942822e-05   1.7479159e-05   2.0044194e-04   1.4490624e-05   2.4493442e-04   2.1460355e-04   9.0099731e-05   1.7879563e-04   1.1330037e-05  -5.6381299e-06  -2.8809075e-05  -1.0486302e-04  -9.8513685e-06   3.1979483e-04   1.1591062e-04   2.4464292e-05  -9.4327553e-05  -6.2569490e-05  -5.3846471e-05  -4.1899430e-05   7.3037354e-05   1.8007125e-04  -5.0140543e-05   1.4315333e-04  -4.8205041e-05   6.5608784e-05   5.5718926e-05   4.3263535e-05  -6.6806614e-05  -5.9625344e-05  -6.1145872e-05  -4.1354816e-06   2.2200247e-05   2.5189943e-05   1.4954330e-05  -7.8693773e-06  -7.1685253e-06  -4.2478615e-05  -3.7909256e-05  -3.9016381e-05   1.2155166e-04  -2.7842308e-05   1.0246211e-04   6.1371532e-05   3.5149272e-06   3.6313663e-05  -9.5100111e-05   3.9278566e-05   3.0044529e-05   6.6406715e-05  -4.6763540e-05   1.1172843e-04   9.0902009e-06  -2.4394290e-05   1.6313064e-06  -1.3569132e-05  -1.2772357e-05   1.2419181e-04   1.2282793e-04   3.3202614e-05   2.7480361e-05   7.2121897e-05   1.3659897e-05   5.7542006e-05  -3.2556149e-05  -1.4184569e-05   4.5039437e-05   3.9984473e-05   4.7347731e-05   1.7955763e-04   5.5069162e-05  -4.1514431e-06   8.4920645e-06   2.3442425e-05   8.0077691e-05   5.2363055e-05   2.7132420e-05   5.1968711e-05   1.0563581e-04   4.2013110e-05   6.3811889e-05   5.6499359e-05   7.1403955e-05   8.6405007e-05   3.5547528e-05   4.3578647e-06  -3.7626054e-05   8.5737726e-06   7.1428172e-05   1.1905991e-04   3.8906530e-05   1.5408122e-05   1.3300475e-05   2.0936341e-05   2.5290154e-05  -1.7934968e-05  -2.1024421e-04  -1.1537730e-04  -5.9780377e-05  -5.5048073e-05  -5.1301364e-05  -3.6772935e-05   5.8193381e-05  -8.1658733e-05  -5.1544858e-05  -1.3363737e-04  -9.3381768e-05  -6.6251291e-05  -1.7159937e-05   3.5281595e-05  -1.1056380e-04  -9.5026892e-05  -2.0247069e-04  -1.8168836e-04  -9.2311338e-05  -2.1223302e-04  -2.2261756e-04  -1.7165628e-04  -3.2117623e-04  -1.5689752e-04  -1.5780856e-04  -2.2858251e-04  -2.0066762e-04  -5.4189301e-05   4.7879195e-05  -3.5787566e-05  -2.3543495e-04  -1.5441332e-04  -7.5030472e-05  -6.5971543e-05  -7.1944762e-05  -1.6763171e-04  -2.0302195e-04  -8.2768622e-05  -4.0285536e-05  -4.1436555e-05  -8.5610441e-05  -2.4970044e-05   8.9439074e-06   1.2249022e-04   1.6356601e-05   9.5971773e-06  -1.6942845e-05  -1.3621233e-05   5.8128828e-06   1.5794731e-04   1.8586827e-04   3.1289458e-06  -2.1204060e-05  -5.0225517e-05   3.9452718e-05   4.5768870e-05   4.1095775e-05   9.2365007e-05  -2.1478722e-05  -6.9468378e-06  -2.3976834e-05   6.6681546e-06  -4.9229413e-06   9.9512328e-06  -1.3393264e-05  -1.1035828e-05  -8.2348417e-05   4.1750408e-05   6.5498275e-05   4.6997274e-05  -1.4468592e-05  -3.9860197e-05  -2.1671899e-05  -2.6704523e-05   5.8836827e-05   1.0268211e-04   1.2931039e-04   2.1162060e-04   8.3259676e-05   2.0043542e-04   1.2216950e-04   3.6553222e-04   1.3914180e-04   1.1948154e-04   4.6383678e-05   7.1210188e-05   1.3141153e-04   2.8238671e-04   3.6480893e-04   1.9086205e-04   1.0030134e-05   1.6066091e-04   3.1121332e-04   1.6475158e-04   1.4451542e-04   1.5579854e-04   2.5597064e-04   1.1256737e-04   2.9064587e-04   2.1070098e-04   1.3640707e-04   2.2921114e-04  -1.7577050e-07   1.2162293e-04   1.4047489e-04   4.9562356e-04   6.2694407e-05   3.9799133e-04   1.0680556e-04   5.2975719e-05   3.3516701e-04   4.9223672e-04   3.7485273e-04   1.0984292e-04   2.4148474e-05   8.2843101e-06   2.1278864e-04   2.3682637e-05   4.0750147e-05  -9.4426709e-05   2.2916443e-05   4.8451721e-05   4.2664689e-05   6.6535474e-05   5.8462800e-05  -1.0011943e-04  -6.2776237e-05   1.4431615e-04   1.0159812e-04   1.3250942e-04   9.9566005e-05   1.3630952e-04   2.3212892e-04   2.2786874e-04   3.2687166e-05   1.8398158e-04   9.5655298e-05  -1.3581288e-05  -1.8672161e-05  -6.9023407e-05   1.7864343e-05   8.9059458e-05  -4.9659469e-05  -1.2501193e-04   2.1618236e-04   3.7734903e-05  -1.8529340e-05   1.3618529e-04   5.2319460e-05  -1.4574894e-04  -2.2102103e-04
   2.8869319e-05   6.9375708e-06  -9.5697374e-05  -1.4859044e-05  -2.6021908e-06   2.8423768e-05   1.5118127e-05  -3.8997517e-05  -9.4116629e-05  -2.5213626e-05  -8.5440364e-06  -4.0991554e-06   5.1698985e-05   7.9491138e-06  -3.4869311e-05  -6.8788923e-05  -1.5853803e-05  -2.5640346e-05  -8.2725518e-06   1.2642518e-05   4.1420913e-05  -8.0774396e-06   5.4221562e-05  -4.3022633e-05  -4.0912369e-05  -1.3730954e-05  -2.4895821e-05  -5.0254077e-05  -5.3859680e-05  -3.7014132e-05  -5.0673160e-06   5.4421851e-06  -4.3827971e-05  -6.2445643e-07  -1.7066337e-05  -2.2553252e-05   4.3743096e-05   5.7615867e-05  -6.0136359e-05  -1.3023167e-04   4.7977709e-04  -1.5991428e-04   3.6193156e-04  -8.1291631e-05  -3.7311720e-04  -8.0896054e-05   6.2180572e-05  -1.6438991e-04  -9.6610302e-05  -1.1245319e-04  -3.0471797e-04  -1.8902491e-04  -3.0093104e-04  -9.0550757e-06  -6.2695847e-05   3.5910895e-05   5.4161001e-05   1.1618678e-06   2.2309708e-04   4.5064659e-04  -9.0116417e-05   3.2363288e-04   5.4958090e-04   2.1764683e-04   3.8354725e-04  -1.4087911e-04   2.5167275e-05  -7.7787187e-05  -3.4140710e-04   4.2041264e-05   4.7534813e-04   2.1039049e-04  -5.1336813e-05  -3.6825941e-04  -1.6887391e-04  -1.7333651e-04   2.7070735e-05  -1.0363212e-04   6.9507048e-05  -1.3193105e-04   4.3394666e-05   1.6452742e-04   3.8081076e-04   2.1914328e-04   7.1301202e-05  -1.6013243e-05   1.0074373e-04   1.9241292e-04   1.0462661e-04   3.5925076e-04   2.1169765e-04  -1.2911398e-05   1.0467525e-04   2.2244396e-04   8.6141612e-05   9.9742130e-05  -2.1412795e-05  -5.6488534e-07   2.3800021e-07  -4.8573538e-05   6.2990633e-06   1.4330210e-04   1.7405535e-04   2.9477236e-05  -6.5420543e-05   5.3865697e-05   2.1065281e-04   2.7794023e-05   4.1005903e-04   1.7463293e-05  -1.7537485e-04   2.5145920e-04   4.9821952e-05  -3.3634497e-06  -4.3193342e-05  -6.5204268e-05  -9.7703151e-05  -1.9420127e-04  -5.2102054e-05  -8.0907906e-05   8.5611068e-05  -3.0311478e-05  -3.6912544e-05  -1.0343071e-04  -1.4914228e-04  -1.1682419e-04   6.0707675e-05  -2.2523369e-06  -6.7725570e-06  -1.0777921e-04  -1.1756218e-04  -1.0244825e-04  -1.3253679e-04  -1.6124696e-04  -1.3307386e-04  -8.4892156e-05  -1.0309933e-04  -7.5545354e-05  -5.3465256e-05  -8.3585938e-05  -1.0221057e-04  -1.2379220e-04  -6.0409979e-05   1.8467348e-05  -3.5538434e-05  -1.2526786e-04  -1.2888647e-06  -4.9433920e-05  -6.5340221e-05   5.0896701e-06  -9.7104267e-05  -1.4921438e-05   8.2823315e-05  -9.3708003e-05   1.6592498e-04  -1.7083064e-04   8.3988578e-05   3.5868185e-05  -3.3369984e-05  -1.4441316e-04   5.9771518e-05  -4.0104046e-06  -1.2232610e-05   2.7528658e-05  -9.5532218e-05  -1.0229094e-04  -7.6995777e-05   4.8969430e-05   4.6407544e-05   9.9270532e-05   4.1933321e-05  -7.1059856e-05   1.6673814e-05   2.1747278e-04   1.5985617e-05   2.7031842e-04   2.4296140e-04   9.0311695e-05   1.7930581e-04   1.5576237e-05   7.4500911e-07  -2.9600989e-05  -1.2403961e-04  -7.0464540e-06   3.2274584e-04   1.1744224e-04   2.8001190e-05  -1.1126175e-04  -7.7823694e-05  -5.9688967e-05  -2.6082337e-05   6.8857045e-05   1.8283773e-04  -6.8085905e-05   1.4044612e-04  -5.7623782e-05   6.8358490e-05   6.3774295e-05   5.1359857e-05  -7.4004337e-05  -7.4307177e-05  -7.3035306e-05  -1.3773898e-06   2.0938339e-05   2.6110300e-05   1.8317345e-05  -1.9602924e-05  -1.5243047e-05  -5.4666733e-05  -5.5796423e-05  -5.4467064e-05   1.1268191e-04  -3.6591627e-05   9.3909014e-05   5.1479853e-05  -3.9732570e-06   2.3370903e-05  -9.9766797e-05   4.4952249e-05   3.0203922e-05   7.1309227e-05  -6.3193940e-05   1.0506110e-04   1.2365703e-06  -2.6891167e-05  -6.0450886e-07  -1.3359327e-05  -1.3360283e-05   1.1602610e-04   1.2159564e-04   2.6115260e-05   1.8232829e-05   6.7334557e-05   6.7801787e-06   5.3792007e-05  -3.9262416e-05  -1.7116769e-05   4.4619909e-05   3.3691198e-05   4.4913243e-05   1.7961389e-04   5.4607163e-05  -7.6548205e-06   1.2163748e-05   2.2762024e-05   7.6236639e-05   4.9510402e-05   2.5808561e-05   5.0305683e-05   1.0053247e-04   3.1897050e-05   5.5565827e-05   5.3671994e-05   6.9306014e-05   8.1928862e-05   3.6098581e-05   3.6799553e-06  -4.1297370e-05   3.2688064e-06   6.7872776e-05   1.1146878e-04   3.6210607e-05   1.3235652e-05   9.9993374e-06   2.3023497e-05   3.6344090e-05  -1.8836088e-05  -2.1377032e-04  -1.0621834e-04  -4.0237873e-05  -5.3966826e-05  -6.0013724e-05  -2.0952869e-05   7.0234237e-05  -7.7115892e-05  -4.3932606e-05  -1.3687861e-04  -9.6351396e-05  -7.4224943e-05  -1.4073447e-05   4.4989522e-05  -9.7264330e-05  -8.3555608e-05  -2.0143229e-04  -1.8384028e-04  -9.7065110e-05  -2.2651286e-04  -2.3844052e-04  -1.8779918e-04  -3.3944916e-04  -1.7392340e-04  -1.5942574e-04  -2.3253714e-04  -1.9914678e-04  -4.6707536e-05   4.5162688e-05  -3.0345766e-05  -2.4176754e-04  -1.4519231e-04  -7.2863825e-05  -6.1611522e-05  -6.6510468e-05  -1.7859165e-04  -2.1678179e-04  -9.2912302e-05  -4.8766639e-05  -4.5600296e-05  -9.5445689e-05  -3.5532473e-05   3.9878590e-07   1.2065044e-04   8.7526666e-06   8.7995068e-06  -2.3747797e-05  -2.5035312e-05  -3.4823513e-06   1.6375786e-04   1.9128846e-04  -5.4770918e-06  -2.8580196e-05  -6.0613646e-05   3.1519935e-05   4.0682114e-05   3.4272466e-05   9.1745484e-05  -3.1578753e-05  -1.7898507e-05  -3.2104839e-05  -1.7465502e-06  -1.4090627e-05  -1.3645986e-06  -2.2603087e-05  -1.6541033e-05  -9.0537716e-05   3.5383701e-05   6.0447725e-05   4.2450005e-05  -2.4237356e-05  -5.1028480e-05  -3.4630754e-05  -3.9821179e-05   4.8498779e-05   1.0737169e-04   1.3960680e-04   2.0047960e-04   8.1541566e-05   1.9222184e-04   1.2049339e-04   4.0007573e-04   1.6684556e-04   1.2649633e-04   4.9471766e-05   6.5825531e-05   1.3168712e-04   3.0241419e-04   4.0690544e-04   2.2001918e-04   1.3439011e-05   1.5872943e-04   3.2050289e-04   1.6251251e-04   1.4587345e-04   1.5914012e-04   2.4308061e-04   1.1918166e-04   2.7444997e-04   2.0919242e-04   1.4104255e-04   2.3436127e-04   1.2542897e-05   1.3929464e-04   1.6425216e-04   5.5583435e-04   5.9104741e-05   4.0227729e-04   1.0576939e-04   6.2750673e-05   3.7540461e-04   5.3474856e-04   4.1568430e-04   1.1343636e-04   3.6382811e-05   3.6561208e-06   2.2530361e-04   1.6503439e-05   3.1760552e-05  -1.0864668e-04   8.8101879e-06   5.0897150e-05   4.4950078e-05   5.9250979e-05   4.7864218e-05  -8.9969447e-05  -7.6846964e-05   1.4387405e-04   1.0869468e-04   1.3001420e-04   8.7407007e-05   1.2911674e-04   2.2632232e-04   2.2242563e-04   3.5842014e-05   1.9006778e-04   1.1071473e-04  -1.3969038e-05  -2.5403164e-05  -8.3948072e-05   2.1438621e-05   9.7267983e-05  -5.3759071e-05  -1.2720087e-04   2.0315907e-04   1.9164439e-05  -3.1914279e-05   1.3273380e-04   4.8067081e-05  -1.4956542e-04  -2.2388128e-04
   1.8700740e-05  -1.6521020e-06  -1.0026217e-04  -2.4697897e-05  -7.8048216e-06   1.9541321e-05   2.0203197e-05  -4.1962215e-05  -1.0002141e-04  -3.1921288e-05  -2.2560802e-05  -1.5149953e-05   5.5834156e-05   9.5947628e-06  -3.4533632e-05  -7.3477336e-05  -2.2126472e-05  -3.3570168e-05  -1.8634129e-05   2.0384691e-06   3.2926458e-05  -1.5568831e-05   4.7065255e-05  -5.3427274e-05  -4.3600289e-05  -2.2298890e-05  -3.4293291e-05  -6.0498708e-05  -5.7077318e-05  -3.8908280e-05   3.2771864e-07  -6.1437009e-06  -4.8804130e-05  -5.1093664e-06  -2.1020378e-05  -2.3042175e-05   4.5017028e-05   5.6897545e-05  -6.6910442e-05  -1.5311331e-04   5.1063298e-04  -1.8841128e-04   3.8152359e-04  -1.0953974e-04  -3.5266237e-04  -8.1951764e-05   7.8608523e-05  -1.8222884e-04  -1.3141218e-04  -1.4072049e-04  -3.0536194e-04  -1.7557279e-04  -2.9732495e-04  -1.1357320e-05  -8.3534225e-05   3.3826641e-05   4.1549171e-05  -3.8098791e-05   2.0148895e-04   4.7229376e-04  -1.0249813e-04   3.2408483e-04   5.5673365e-04   2.1386455e-04   3.8950138e-04  -1.5508079e-04   3.4344232e-05  -8.2235646e-05  -3.2689826e-04   1.5232308e-05   5.0085165e-04   2.1085066e-04  -5.0646127e-05  -3.6000873e-04  -1.7125974e-04  -1.7682629e-04   2.6556478e-05  -1.7913002e-04   5.8558041e-05  -1.2747665e-04   4.9695507e-05   1.7626788e-04   4.0442613e-04   2.3203816e-04   8.5189616e-05  -1.4127426e-05   1.1504027e-04   2.0116961e-04   4.1333837e-05   3.7630464e-04   2.3278105e-04   1.8394705e-05   1.2232531e-04   2.0422551e-04   6.6636093e-05   1.1870424e-04  -1.8486027e-05  -1.1627171e-05   5.7571633e-06  -9.2838521e-05   2.1298741e-05   1.5645795e-04   1.5854364e-04   3.0183161e-05  -6.3390784e-05   4.0005616e-05   1.9826130e-04   3.9143317e-05   3.5972693e-04   1.3873000e-05  -1.7499962e-04   2.7435818e-04   7.1854913e-05  -2.8648941e-05  -4.1908821e-05  -6.4994387e-05  -1.1968806e-04  -1.9767102e-04  -9.3588111e-05  -8.7697839e-05   7.4137800e-05  -3.7701261e-05  -3.4203126e-05  -1.0523817e-04  -1.5345689e-04  -1.2444866e-04   6.6236715e-05  -1.2643674e-05  -1.2488999e-05  -1.0786234e-04  -1.2403006e-04  -1.1446216e-04  -1.4130372e-04  -1.7050833e-04  -1.4754399e-04  -1.1487514e-04  -1.1012212e-04  -9.9639352e-05  -7.1611935e-05  -9.3196528e-05  -1.2243831e-04  -1.2087815e-04  -6.3106873e-05   1.3505204e-05  -4.0065147e-05  -1.3038039e-04  -2.0880123e-05  -6.1728639e-05  -6.8167291e-05   1.8335804e-06  -1.0890286e-04  -1.8084351e-05   9.2988057e-05  -9.4513581e-05   1.9175901e-04  -1.6138471e-04   9.2392346e-05   4.0339005e-05  -4.1724173e-05  -1.4955117e-04   8.2495886e-05   3.1142288e-06  -4.3539972e-06   3.1946297e-05  -8.2005890e-05  -1.1397356e-04  -8.9056281e-05   6.1406801e-05   4.9906314e-05   1.0143246e-04   4.7844694e-05  -6.8495500e-05   1.6024521e-05   2.3254627e-04   1.7861822e-05   2.9379215e-04   2.6932584e-04   9.0206793e-05   1.7836420e-04   2.0598550e-05   7.5431396e-06  -3.0443101e-05  -1.4192466e-04  -2.5531565e-06   3.2334321e-04   1.1801140e-04   3.2262679e-05  -1.2634639e-04  -9.3347860e-05  -6.5857290e-05  -7.2979983e-06   6.3666556e-05   1.8136286e-04  -8.5466154e-05   1.3603756e-04  -6.6179863e-05   7.0597856e-05   7.0582705e-05   5.8730316e-05  -7.9547488e-05  -8.7997351e-05  -8.3690562e-05  -3.7822302e-07   1.8306891e-05   2.6371947e-05   2.1691611e-05  -3.1433443e-05  -2.3389905e-05  -6.6821973e-05  -7.3825729e-05  -6.9991580e-05   1.0247852e-04  -4.5161328e-05   8.3870167e-05   3.9852354e-05  -1.1924037e-05   9.4937749e-06  -1.0204085e-04   5.0136433e-05   3.0035921e-05   7.4605937e-05  -8.0422587e-05   9.5208314e-05  -6.7582058e-06  -2.8752801e-05  -3.5672036e-06  -1.2837536e-05  -1.4654187e-05   1.0354261e-04   1.1693100e-04   1.8190906e-05   6.2861107e-06   5.9977771e-05  -1.0486351e-06   4.7881940e-05  -4.6802425e-05  -1.9613543e-05   4.2873377e-05   2.5906906e-05   4.1148815e-05   1.7674105e-04   5.3054602e-05  -1.1659684e-05   1.5990182e-05   2.1562386e-05   7.1135143e-05   4.5735245e-05   2.4102417e-05   4.7908277e-05   9.2619198e-05   1.9851810e-05   4.5587692e-05   5.0377232e-05   6.5981705e-05   7.6101008e-05   3.5879679e-05   3.2357342e-06  -4.4713718e-05  -3.5116138e-06   6.2869111e-05   1.0244959e-04   3.2701361e-05   1.0098355e-05   6.1245371e-06   2.4563798e-05   4.7023817e-05  -2.2747687e-05  -2.1624106e-04  -9.6925494e-05  -2.3532582e-05  -5.3753283e-05  -7.0186114e-05  -4.2055496e-06   8.1413185e-05  -7.2803510e-05  -3.7908185e-05  -1.4122316e-04  -1.0014451e-04  -8.5558079e-05  -1.2779380e-05   5.2772253e-05  -8.2944681e-05  -7.2741724e-05  -1.9859828e-04  -1.8502182e-04  -1.0272025e-04  -2.3959830e-04  -2.5261768e-04  -2.0371899e-04  -3.5440546e-04  -1.8920307e-04  -1.6071451e-04  -2.3503869e-04  -1.9621872e-04  -3.9558107e-05   4.0164463e-05  -2.7648375e-05  -2.4698985e-04  -1.3501205e-04  -7.1178732e-05  -5.8502881e-05  -6.2334776e-05  -1.9051252e-04  -2.2898585e-04  -1.0309074e-04  -5.8219957e-05  -4.9552281e-05  -1.0560563e-04  -4.6827786e-05  -8.9722473e-06   1.1545851e-04   4.0578986e-08   7.6787638e-06  -3.1072584e-05  -3.7084202e-05  -1.4018197e-05   1.6763069e-04   1.9473466e-04  -1.5586811e-05  -3.6380189e-05  -7.1289178e-05   2.1666691e-05   3.4016204e-05   2.5604269e-05   8.8539157e-05  -4.3293375e-05  -2.9973175e-05  -4.1248008e-05  -1.0941636e-05  -2.4231236e-05  -1.3679705e-05  -3.2787144e-05  -2.2314926e-05  -9.7649941e-05   2.6295875e-05   5.2927082e-05   3.6287415e-05  -3.4735272e-05  -6.3183438e-05  -4.9240056e-05  -5.4682998e-05   3.6354815e-05   1.0768636e-04   1.4619976e-04   1.8930160e-04   7.8339261e-05   1.8382298e-04   1.1620440e-04   4.3301830e-04   1.9748193e-04   1.3276473e-04   5.1206236e-05   6.0432891e-05   1.2967433e-04   3.1639410e-04   4.4488749e-04   2.4837430e-04   1.8079909e-05   1.5566187e-04   3.2495822e-04   1.5833018e-04   1.4482667e-04   1.6063082e-04   2.2999648e-04   1.2325507e-04   2.5624689e-04   2.1001995e-04   1.4554385e-04   2.3988845e-04   2.5116253e-05   1.5564669e-04   1.9000592e-04   6.0995805e-04   5.4167741e-05   4.0321561e-04   1.0456651e-04   7.2139479e-05   4.1327619e-04   5.6988164e-04   4.4961982e-04   1.1497364e-04   4.9830463e-05  -8.5282287e-07   2.3612578e-04   8.4799385e-06   2.1693195e-05  -1.2140859e-04  -5.5769560e-06   5.2837529e-05   4.7064226e-05   5.0114529e-05   3.5878324e-05  -7.7731843e-05  -9.0160271e-05   1.4064678e-04   1.1446498e-04   1.2553573e-04   7.2941325e-05   1.1933785e-04   2.1605514e-04   2.1255263e-04   3.8779885e-05   1.9315965e-04   1.2492282e-04  -1.4470104e-05  -3.1957216e-05  -9.8851611e-05   2.5146598e-05   1.0351620e-04  -5.4996854e-05  -1.2586508e-04   1.8579174e-04  -2.2063220e-06  -4.5476900e-05   1.2633594e-04   4.3596662e-05  -1.4913066e-04  -2.2246701e-04
   7.3646580e-06  -1.1102560e-05  -1.0324427e-04  -3.4760246e-05  -1.3051619e-05   9.5726454e-06   2.5217283e-05  -4.3861709e-05  -1.0446004e-04  -3.8700586e-05  -3.7325922e-05  -2.6865032e-05   5.9462300e-05   1.1200123e-05  -3.3514634e-05  -7.7354983e-05  -2.8510481e-05  -4.1735902e-05  -2.9729146e-05  -9.6114767e-06   2.2795835e-05  -2.3286070e-05   3.8400610e-05  -6.3662832e-05  -4.5502833e-05  -3.1258686e-05  -4.4084853e-05  -7.0525219e-05  -5.9413736e-05  -3.9760901e-05   6.2592835e-06  -1.8710055e-05  -5.3602196e-05  -9.8618694e-06  -2.4718568e-05  -2.3244322e-05   4.6062404e-05   5.5353998e-05  -7.4277161e-05  -1.7079564e-04   5.3146240e-04  -2.0942273e-04   3.9036567e-04  -1.3608322e-04  -3.2287388e-04  -7.9100180e-05   9.3259931e-05  -1.9500051e-04  -1.6296311e-04  -1.6690915e-04  -3.0077454e-04  -1.5718145e-04  -2.8640418e-04  -1.2709293e-05  -1.0376731e-04   2.9282331e-05   2.8670981e-05  -7.6690341e-05   1.7693239e-04   4.8034268e-04  -1.1065152e-04   3.1462537e-04   5.5216202e-04   2.0202580e-04   3.8166601e-04  -1.6472244e-04   4.4245755e-05  -8.2825185e-05  -3.0271704e-04  -1.2036669e-05   5.0667393e-04   2.0491162e-04  -4.6505672e-05  -3.4324856e-04  -1.6677814e-04  -1.7372342e-04   2.1622433e-05  -2.6413340e-04   3.8299964e-05  -1.2468511e-04   5.4177173e-05   1.8447899e-04   4.1693292e-04   2.4113246e-04   9.5164911e-05  -1.2952771e-05   1.2941632e-04   2.0490949e-04  -4.8131570e-05   3.7953476e-04   2.4633894e-04   5.3279677e-05   1.4066666e-04   1.7284269e-04   4.0814567e-05   1.3480327e-04  -1.4220438e-05  -2.6841111e-05   1.2005690e-05  -1.4899111e-04   3.5796945e-05   1.6642430e-04   1.3190129e-04   2.8007841e-05  -6.1677136e-05   2.6180118e-05   1.7702258e-04   4.9250626e-05   2.7754807e-04   1.0235124e-05  -1.7158184e-04   2.8738465e-04   1.0274808e-04  -5.2714255e-05  -4.2204271e-05  -6.5422520e-05  -1.4054111e-04  -1.9597486e-04  -1.3622263e-04  -9.2950677e-05   6.0627351e-05  -4.5241671e-05  -3.1069128e-05  -1.0429394e-04  -1.5421974e-04  -1.2931701e-04   7.0795615e-05  -2.3088185e-05  -1.7343629e-05  -1.0592111e-04  -1.2741694e-04  -1.2437757e-04  -1.4767089e-04  -1.7649789e-04  -1.6041732e-04  -1.4594609e-04  -1.1558058e-04  -1.2457584e-04  -8.9611571e-05  -1.0125745e-04  -1.4115708e-04  -1.1474108e-04  -6.5004678e-05   7.4108201e-06  -4.4992677e-05  -1.3289936e-04  -4.1014392e-05  -7.3681633e-05  -7.0033165e-05  -1.0617545e-06  -1.2021420e-04  -2.1338815e-05   1.0373501e-04  -9.3404930e-05   2.1773349e-04  -1.4880202e-04   9.9643412e-05   4.4753208e-05  -5.0415632e-05  -1.5354770e-04   1.0504716e-04   1.1301510e-05   4.7944473e-06   3.6567114e-05  -6.6200422e-05  -1.2481744e-04  -1.0007423e-04   7.4056399e-05   5.2655259e-05   1.0265858e-04   5.4162924e-05  -6.4476732e-05   1.5592939e-05   2.4550960e-04   2.0076945e-05   3.1485641e-04   2.9281954e-04   9.0069351e-05   1.7653413e-04   2.6208896e-05   1.4478608e-05  -3.1304635e-05  -1.5774747e-04   3.4422055e-06   3.2263916e-04   1.1787834e-04   3.7136019e-05  -1.3878330e-04  -1.0878493e-04  -7.2397328e-05   1.3613947e-05   5.7961526e-05   1.7600193e-04  -1.0126774e-04   1.3060250e-04  -7.3488805e-05   7.2462428e-05   7.5887762e-05   6.5052701e-05  -8.3121622e-05  -1.0001167e-04  -9.2579541e-05  -1.5593241e-06   1.4328089e-05   2.5981356e-05   2.5042253e-05  -4.2691403e-05  -3.1216997e-05  -7.8465231e-05  -9.1204500e-05  -8.4998464e-05   9.1914420e-05  -5.3254859e-05   7.3190395e-05   2.7240348e-05  -1.9979014e-05  -4.5148566e-06  -1.0183426e-04   5.4658500e-05   2.9733245e-05   7.6193767e-05  -9.7934085e-05   8.2818071e-05  -1.4437004e-05  -2.9913275e-05  -7.1554004e-06  -1.1983905e-05  -1.6716293e-05   8.7093277e-05   1.0899335e-04   9.9003703e-06  -8.0551756e-06   5.0226989e-05  -9.5584390e-06   4.0173916e-05  -5.4943298e-05  -2.1476674e-05   3.9909889e-05   1.6957222e-05   3.6219541e-05   1.7128485e-04   5.0666704e-05  -1.5972657e-05   1.9732856e-05   1.9751184e-05   6.5214058e-05   4.1302276e-05   2.2061031e-05   4.4868586e-05   8.2076992e-05   6.1684198e-06   3.4215453e-05   4.6756736e-05   6.1670624e-05   6.9367035e-05   3.4921069e-05   3.0644753e-06  -4.7725468e-05  -1.1436115e-05   5.6590604e-05   9.2688269e-05   2.8582456e-05   5.9836210e-06   1.8935030e-06   2.5543824e-05   5.6834116e-05  -3.0279327e-05  -2.1843897e-04  -8.8262249e-05  -1.1240324e-05  -5.4927785e-05  -8.1948460e-05   1.2488469e-05   9.1352044e-05  -6.9162863e-05  -3.4212759e-05  -1.4728858e-04  -1.0528943e-04  -1.0046329e-04  -1.3807690e-05   5.8061988e-05  -6.8480527e-05  -6.3627821e-05  -1.9488611e-04  -1.8587387e-04  -1.0963776e-04  -2.5165983e-04  -2.6514192e-04  -2.1940567e-04  -3.6591726e-04  -2.0217458e-04  -1.6230209e-04  -2.3679564e-04  -1.9253524e-04  -3.3261362e-05   3.3143757e-05  -2.8476136e-05  -2.5164280e-04  -1.2492579e-04  -7.0499676e-05  -5.7226455e-05  -6.0244563e-05  -2.0372146e-04  -2.3964856e-04  -1.1304948e-04  -6.8406838e-05  -5.3116184e-05  -1.1579456e-04  -5.8480916e-05  -1.8758771e-05   1.0711342e-04  -9.6960453e-06   6.3537460e-06  -3.8575821e-05  -4.9290716e-05  -2.5347631e-05   1.6980133e-04   1.9643359e-04  -2.6891367e-05  -4.4347002e-05  -8.1921450e-05   1.0344038e-05   2.6050505e-05   1.5368117e-05   8.2736910e-05  -5.6230704e-05  -4.2749777e-05  -5.1021617e-05  -2.0458371e-05  -3.4938810e-05  -2.6434716e-05  -4.3544836e-05  -2.8088783e-05  -1.0357579e-04   1.5048851e-05   4.3187213e-05   2.8968442e-05  -4.5604758e-05  -7.6015277e-05  -6.4959813e-05  -7.0837194e-05   2.3119726e-05   1.0382512e-04   1.4909557e-04   1.7938439e-04   7.3705613e-05   1.7671617e-04   1.0964374e-04   4.6434516e-04   2.3055989e-04   1.3833385e-04   5.1405717e-05   5.5365242e-05   1.2557353e-04   3.2398455e-04   4.7801982e-04   2.7530264e-04   2.3663594e-05   1.5189430e-04   3.2527715e-04   1.5272061e-04   1.4147308e-04   1.6062786e-04   2.1870527e-04   1.2481859e-04   2.3784741e-04   2.1399103e-04   1.5009026e-04   2.4643077e-04   3.6644685e-05   1.7015876e-04   2.1730318e-04   6.5652866e-04   4.7878021e-05   4.0244923e-04   1.0360671e-04   8.0747403e-05   4.4801439e-04   5.9717386e-04   4.7573155e-04   1.1436071e-04   6.3919091e-05  -5.0192036e-06   2.4506379e-04  -7.9712701e-08   1.1041153e-05  -1.3243991e-04  -1.9649277e-05   5.4455469e-05   4.8911915e-05   3.9525082e-05   2.3006211e-05  -6.4286434e-05  -1.0236245e-04   1.3475999e-04   1.1885128e-04   1.1944717e-04   5.6830671e-05   1.0751831e-04   2.0185758e-04   1.9879334e-04   4.1235972e-05   1.9312030e-04   1.3755658e-04  -1.5436461e-05  -3.8263099e-05  -1.1344256e-04   2.8717686e-05   1.0739022e-04  -5.3338685e-05  -1.2142991e-04   1.6480965e-04  -2.5706173e-05  -5.8811701e-05   1.1710158e-04   3.9072999e-05  -1.4466901e-04  -2.1725610e-04
  -4.8201100e-06  -2.1171811e-05  -1.0464756e-04  -4.4816237e-05  -1.8205740e-05  -1.1864348e-06   2.9901913e-05  -4.4645619e-05  -1.0735026e-04  -4.5394766e-05  -5.2423258e-05  -3.8914636e-05   6.2530764e-05   1.2635217e-05  -3.1975816e-05  -8.0373839e-05  -3.4855475e-05  -4.9968892e-05  -4.1271927e-05  -2.1988938e-05   1.1293286e-05  -3.1025809e-05   2.8468210e-05  -7.3447057e-05  -4.6539330e-05  -4.0389018e-05  -5.4061315e-05  -8.0061973e-05  -6.0850315e-05  -3.9568420e-05   1.2259055e-05  -3.1894513e-05  -5.8171160e-05  -1.4765309e-05  -2.8092241e-05  -2.3337759e-05   4.6746238e-05   5.3016368e-05  -8.2827273e-05  -1.8277474e-04   5.4175620e-04  -2.2202191e-04   3.8734774e-04  -1.5953399e-04  -2.8556089e-04  -7.1840388e-05   1.0565225e-04  -2.0207923e-04  -1.8967144e-04  -1.9000168e-04  -2.9045275e-04  -1.3490732e-04  -2.6905008e-04  -1.3092179e-05  -1.2296176e-04   2.2124684e-05   1.6205654e-05  -1.1276980e-04   1.5080859e-04   4.7368702e-04  -1.1388380e-04   2.9564028e-04   5.3637149e-04   1.8239515e-04   3.5994400e-04  -1.6916303e-04   5.4567101e-05  -7.8793136e-05  -2.6888536e-04  -3.8274285e-05   4.9192144e-04   1.9283711e-04  -3.8760994e-05  -3.1901735e-04  -1.5482644e-04  -1.6341683e-04   1.1040935e-05  -3.5665756e-04   8.2957915e-06  -1.2512752e-04   5.6084518e-05   1.8845785e-04   4.1592543e-04   2.4559371e-04   1.0005014e-04  -1.3300864e-05   1.4302043e-04   2.0281586e-04  -1.6487479e-04   3.6640442e-04   2.5075304e-04   9.0502152e-05   1.5945513e-04   1.2820907e-04   9.3216436e-06   1.4714247e-04  -8.2487980e-06  -4.6305753e-05   1.8609244e-05  -2.1682111e-04   4.8677689e-05   1.7255006e-04   9.4419425e-05   2.2229598e-05  -6.0874561e-05   1.2747078e-05   1.4576792e-04   5.7692418e-05   1.6476587e-04   6.9277206e-06  -1.6569251e-04   2.8841056e-04   1.4116153e-04  -7.5117518e-05  -4.4122878e-05  -6.6520921e-05  -1.5927184e-04  -1.8921641e-04  -1.7802141e-04  -9.6370459e-05   4.5627313e-05  -5.2754046e-05  -2.7699345e-05  -1.0055651e-04  -1.5124714e-04  -1.3105291e-04   7.4031963e-05  -3.3108141e-05  -2.1015593e-05  -1.0206855e-04  -1.2747043e-04  -1.3167085e-04  -1.5131163e-04  -1.7888930e-04  -1.7116597e-04  -1.7678503e-04  -1.1929279e-04  -1.4937828e-04  -1.0650946e-04  -1.0733037e-04  -1.5749409e-04  -1.0560325e-04  -6.6097540e-05   3.5728604e-07  -5.0421394e-05  -1.3256250e-04  -6.0670805e-05  -8.4788622e-05  -7.0852906e-05  -3.4323380e-06  -1.3084894e-04  -2.4675808e-05   1.1484952e-04  -9.0649946e-05   2.4340289e-04  -1.3379776e-04   1.0568911e-04   4.9032042e-05  -5.8950607e-05  -1.5627084e-04   1.2678962e-04   2.0260798e-05   1.4889909e-05   4.1266742e-05  -4.8582030e-05  -1.3439232e-04  -1.0943210e-04   8.6491111e-05   5.4550258e-05   1.0314243e-04   6.0786741e-05  -5.9280887e-05   1.5418902e-05   2.5636419e-04   2.2580520e-05   3.3314797e-04   3.1270657e-04   9.0162425e-05   1.7438919e-04   3.2188362e-05   2.1276386e-05  -3.2101557e-05  -1.7083303e-04   1.0666573e-05   3.2167862e-04   1.1732178e-04   4.2460093e-05  -1.4790886e-04  -1.2378321e-04  -7.9317071e-05   3.5686984e-05   5.2258039e-05   1.6735809e-04  -1.1453783e-04   1.2487821e-04  -7.9229164e-05   7.4106644e-05   7.9529792e-05   7.0062610e-05  -8.4506822e-05  -1.0974074e-04  -9.9253308e-05  -5.2208955e-06   9.1081416e-06   2.4985137e-05   2.8342823e-05  -5.2731212e-05  -3.8355491e-05  -8.9141535e-05  -1.0717331e-04  -9.8934265e-05   8.2001242e-05  -6.0606046e-05   6.2763568e-05   1.4446263e-05  -2.7778090e-05  -1.7847526e-05  -9.9182413e-05   5.8379137e-05   2.9511910e-05   7.6062381e-05  -1.1519148e-04   6.8695249e-05  -2.1359328e-05  -3.0345025e-05  -1.1223545e-05  -1.0771562e-05  -1.9529889e-05   6.7235570e-05   9.8098651e-05   1.7370558e-06  -2.4329200e-05   3.8375540e-05  -1.8437465e-05   3.1161273e-05  -6.3370189e-05  -2.2540069e-05   3.5913310e-05   7.2382971e-06   3.0355381e-05   1.6371172e-04   4.7747495e-05  -2.0370658e-05   2.3129061e-05   1.7239024e-05   5.8943602e-05   3.6511199e-05   1.9736609e-05   4.1292105e-05   6.9184695e-05  -8.7917596e-06   2.1829822e-05   4.2907544e-05   5.6656819e-05   6.2206754e-05   3.3284867e-05   3.1670299e-06  -5.0194475e-05  -2.0072209e-05   4.9252824e-05   8.2882013e-05   2.4088704e-05   9.1296408e-07  -2.4412833e-06   2.5979345e-05   6.5326124e-05  -4.1792962e-05  -2.2108432e-04  -8.0854182e-05  -4.5475300e-06  -5.7900197e-05  -9.5319056e-05   2.8225485e-05   9.9770744e-05  -6.6507134e-05  -3.3379264e-05  -1.5550778e-04  -1.1219442e-04  -1.1885539e-04  -1.7496289e-05   6.0484467e-05  -5.4670944e-05  -5.7075079e-05  -1.9118357e-04  -1.8698912e-04  -1.1806737e-04  -2.6288587e-04  -2.7603603e-04  -2.3480626e-04  -3.7394665e-04  -2.1237939e-04  -1.6472903e-04  -2.3847250e-04  -1.8867541e-04  -2.8212294e-05   2.4490273e-05  -3.3243217e-05  -2.5620558e-04  -1.1588028e-04  -7.1250546e-05  -5.8197419e-05  -6.0868045e-05  -2.1837129e-04  -2.4877943e-04  -1.2243996e-04  -7.8950004e-05  -5.6059082e-05  -1.2558628e-04  -7.0048214e-05  -2.8491425e-05   9.6016042e-05  -2.0323681e-05   4.9880430e-06  -4.5840241e-05  -6.1103893e-05  -3.6914161e-05   1.7061916e-04   1.9671599e-04  -3.8946103e-05  -5.2160576e-05  -9.2094444e-05  -1.8543709e-06   1.7181071e-05   3.9741066e-06   7.4489436e-05  -6.9820187e-05  -5.5705166e-05  -6.0902219e-05  -2.9771572e-05  -4.5705402e-05  -3.8982964e-05  -5.4365635e-05  -3.3558128e-05  -1.0823211e-04   2.4442590e-06   3.1674332e-05   2.1088375e-05  -5.6421359e-05  -8.9105153e-05  -8.1071201e-05  -8.7626471e-05   9.6067203e-06   9.6238167e-05   1.4851913e-04   1.7170403e-04   6.7738022e-05   1.7213953e-04   1.0125593e-04   4.9412107e-04   2.6539982e-04   1.4322809e-04   4.9977028e-05   5.0860646e-05   1.1965622e-04   3.2518081e-04   5.0587422e-04   3.0025856e-04   2.9769090e-05   1.4780868e-04   3.2232567e-04   1.4618228e-04   1.3598799e-04   1.5954292e-04   2.1085110e-04   1.2404842e-04   2.2085682e-04   2.2146650e-04   1.5473653e-04   2.5436877e-04   4.6275187e-05   1.8239748e-04   2.4557926e-04   6.9453504e-04   4.0208510e-05   4.0151797e-04   1.0319558e-04   8.8199586e-05   4.7896212e-04   6.1668534e-04   4.9360466e-04   1.1157959e-04   7.8017056e-05  -8.6766674e-06   2.5192392e-04  -8.8674033e-06   3.0863879e-07  -1.4157401e-04  -3.2874261e-05   5.5963164e-05   5.0398291e-05   2.7957335e-05   9.7729991e-06  -5.0520908e-05  -1.1315093e-04   1.2646742e-04   1.2185317e-04   1.1215880e-04   3.9795883e-05   9.4258618e-05   1.8437698e-04   1.8178516e-04   4.2917933e-05   1.8989068e-04   1.4791549e-04  -1.7242601e-05  -4.4292916e-05  -1.2742907e-04   3.1877801e-05   1.0859017e-04  -4.8905553e-05  -1.1447974e-04   1.4101699e-04  -5.0551360e-05  -7.1554693e-05   1.0522942e-04   3.4655684e-05  -1.3661610e-04  -2.0891252e-04
  -1.7521851e-05  -3.1602951e-05  -1.0454968e-04  -5.4662412e-05  -2.3158182e-05  -1.2422790e-05   3.4000690e-05  -4.4328480e-05  -1.0867383e-04  -5.1851274e-05  -6.7435753e-05  -5.0964734e-05   6.4981226e-05   1.3774585e-05  -3.0109818e-05  -8.2514819e-05  -4.1023847e-05  -5.8091389e-05  -5.2962925e-05  -3.4758146e-05  -1.2721922e-06  -3.8604892e-05   1.7538943e-05  -8.2531822e-05  -4.6673261e-05  -4.9469213e-05  -6.4005595e-05  -8.8856677e-05  -6.1409925e-05  -3.8390920e-05   1.7814909e-05  -4.5321168e-05  -6.2460031e-05  -1.9702890e-05  -3.1101577e-05  -2.3515280e-05   4.6901884e-05   4.9917952e-05  -9.3161587e-05  -1.8907776e-04   5.4160344e-04  -2.2579525e-04   3.7202523e-04  -1.7861955e-04  -2.4295061e-04  -5.9871885e-05   1.1551318e-04  -2.0312904e-04  -2.1020694e-04  -2.0912494e-04  -2.7396749e-04  -1.1001460e-04  -2.4647381e-04  -1.2556418e-05  -1.4077615e-04   1.2384226e-05   4.7872307e-06  -1.4465219e-04   1.2450537e-04   4.5203189e-04  -1.1178156e-04   2.6810263e-04   5.1050069e-04   1.5577547e-04   3.2523637e-04  -1.6801348e-04   6.4957280e-05  -6.9569406e-05  -2.2573048e-04  -6.2051525e-05   4.5729733e-04   1.7533696e-04  -2.7467322e-05  -2.8870920e-04  -1.3513415e-04  -1.4568466e-04  -6.1924766e-06  -4.5428112e-04  -3.1318600e-05  -1.3018653e-04   5.4762244e-05   1.8768427e-04   3.9951276e-04   2.4467457e-04   9.8902790e-05  -1.5941134e-05   1.5493576e-04   1.9431969e-04  -3.0850194e-04   3.3512773e-04   2.4486086e-04   1.2866107e-04   1.7840016e-04   7.0955972e-05  -2.6903914e-05   1.5499884e-04  -3.4379021e-07  -6.9828378e-05   2.5134756e-05  -2.9543533e-04   5.8895942e-05   1.7437568e-04   4.7093671e-05   1.2271542e-05  -6.1505030e-05  -2.4087058e-08   1.0369775e-04   6.4088974e-05   2.4683222e-05   4.3398007e-06  -1.5805196e-04   2.7593377e-04   1.8503561e-04  -9.5763848e-05  -4.7543546e-05  -6.8203404e-05  -1.7499742e-04  -1.7775442e-04  -2.1710585e-04  -9.7729070e-05   2.9690901e-05  -6.0093272e-05  -2.4288831e-05  -9.4118848e-05  -1.4450764e-04  -1.2941294e-04   7.5621561e-05  -4.2293568e-05  -2.3293393e-05  -9.6497569e-05  -1.2409828e-04  -1.3595229e-04  -1.5200161e-04  -1.7748824e-04  -1.7931212e-04  -2.0605574e-04  -1.2114027e-04  -1.7303079e-04  -1.2139779e-04  -1.1105757e-04  -1.7068448e-04  -9.3826472e-05  -6.6413496e-05  -7.4594438e-06  -5.6474631e-05  -1.2920992e-04  -7.8870821e-05  -9.4581265e-05  -7.0576618e-05  -5.1888134e-06  -1.4066080e-04  -2.8097795e-05   1.2610161e-04  -8.6553316e-05   2.6836560e-04  -1.1713004e-04   1.1059797e-04   5.3128884e-05  -6.6784019e-05  -1.5756320e-04   1.4717614e-04   2.9680215e-05   2.5596311e-05   4.5940171e-05  -2.9572103e-05  -1.4228841e-04  -1.1656767e-04   9.8300311e-05   5.5562116e-05   1.0312251e-04   6.7620621e-05  -5.3213154e-05   1.5527340e-05   2.6526779e-04   2.5323692e-05   3.4846493e-04   3.2844456e-04   9.0715346e-05   1.7247896e-04   3.8307588e-05   2.7683010e-05  -3.2702961e-05  -1.8063273e-04   1.8780282e-05   3.2142742e-04   1.1662187e-04   4.8042321e-05  -1.5323199e-04  -1.3799922e-04  -8.6568896e-05   5.7890039e-05   4.7058777e-05   1.5622084e-04  -1.2445163e-04   1.1959658e-04  -8.3157972e-05   7.5682339e-05   8.1450247e-05   7.3564521e-05  -8.3592657e-05  -1.1668515e-04  -1.0337354e-04  -1.1527651e-05   2.8299169e-06   2.3462513e-05   3.1569220e-05  -6.0976031e-05  -4.4484242e-05  -9.8442953e-05  -1.2104822e-04  -1.1130985e-04   7.3693484e-05  -6.6992826e-05   5.3463075e-05   2.2509692e-06  -3.4980153e-05  -2.9758468e-05  -9.4240334e-05   6.1201002e-05   2.9596790e-05   7.4285154e-05  -1.3165684e-04   5.3701052e-05  -2.7132313e-05  -3.0058181e-05  -1.5593646e-05  -9.1635969e-06  -2.2996512e-05   4.4706183e-05   8.4709823e-05  -5.8133616e-06  -4.1937491e-05   2.4823267e-05  -2.7350798e-05   2.1435954e-05  -7.1703223e-05  -2.2681338e-05   3.1129600e-05  -2.8011472e-06   2.3837315e-05   1.5458891e-04   4.4627137e-05  -2.4613701e-05   2.5908136e-05   1.3948740e-05   5.2798390e-05   3.1671841e-05   1.7195113e-05   3.7299995e-05   5.4318441e-05  -2.4606217e-05   8.8424887e-06   3.8881013e-05   5.1256739e-05   5.5111085e-05   3.1057961e-05   3.5089508e-06  -5.2001684e-05  -2.8920243e-05   4.1110158e-05   7.3691570e-05   1.9470816e-05  -5.0470228e-06  -6.6197017e-06   2.5906856e-05   7.2123652e-05  -5.7359653e-05  -2.2477062e-04  -7.5150561e-05  -4.1708119e-06  -6.2931595e-05  -1.1018881e-04   4.2260185e-05   1.0650062e-04  -6.5002635e-05  -3.5681539e-05  -1.6609287e-04  -1.2111273e-04  -1.4033200e-04  -2.3951374e-05   5.9898858e-05  -4.2199718e-05  -5.3703807e-05  -1.8827897e-04  -1.8885507e-04  -1.2811435e-04  -2.7344885e-04  -2.8534276e-04  -2.4982066e-04  -3.7854565e-04  -2.1949163e-04  -1.6841274e-04  -2.4063565e-04  -1.8511445e-04  -2.4664091e-05   1.4697113e-05  -4.1952910e-05  -2.6105167e-04  -1.0864875e-04  -7.3714534e-05  -6.1622677e-05  -6.4578667e-05  -2.3440320e-04  -2.5636432e-04  -1.3082853e-04  -8.9338427e-05  -5.8088077e-05  -1.3443585e-04  -8.1026933e-05  -3.7648832e-05   8.2745589e-05  -3.1655612e-05   3.7860537e-06  -5.2399824e-05  -7.1910553e-05  -4.8063085e-05   1.7051536e-04   1.9599909e-04  -5.1196721e-05  -5.9453690e-05  -1.0130411e-04  -1.4220037e-05   7.9146557e-06  -8.0388636e-06   6.4118680e-05  -8.3334559e-05  -6.8229853e-05  -7.0262695e-05  -3.8312682e-05  -5.5939672e-05  -5.0612874e-05  -6.4646286e-05  -3.8400500e-05  -1.1155594e-04  -1.0557748e-05   1.9014389e-05   1.3336142e-05  -6.6699218e-05  -1.0193020e-04  -9.6713025e-05  -1.0423236e-04  -3.3362650e-06   8.5560604e-05   1.4485208e-04   1.6684545e-04   6.0593829e-05   1.7098402e-04   9.1563602e-05   5.2243779e-04   3.0116102e-04   1.4742895e-04   4.6925978e-05   4.7050117e-05   1.1224101e-04   3.2027629e-04   5.2833266e-04   3.2278794e-04   3.5871235e-05   1.4370493e-04   3.1704883e-04   1.3916514e-04   1.2862056e-04   1.5780283e-04   2.0759196e-04   1.2124842e-04   2.0655574e-04   2.3232442e-04   1.5941143e-04   2.6379527e-04   5.3261813e-05   1.9204198e-04   2.7415898e-04   7.2343776e-04   3.1116779e-05   4.0170477e-04   1.0351324e-04   9.4153028e-05   5.0557051e-04   6.2895776e-04   5.0333840e-04   1.0670345e-04   9.1483391e-05  -1.1720313e-05   2.5652470e-04  -1.7596144e-05  -1.0011547e-05  -1.4873660e-04  -4.4778979e-05   5.7595006e-05   5.1438515e-05   1.5948326e-05  -3.2913220e-06  -3.7261865e-05  -1.2226248e-04   1.1614374e-04   1.2353174e-04   1.0410831e-04   2.2592820e-05   8.0189723e-05   1.6433838e-04   1.6223997e-04   4.3546933e-05   1.8349262e-04   1.5537541e-04  -2.0243504e-05  -5.0046635e-05  -1.4053321e-04   3.4372196e-05   1.0695931e-04  -4.1964748e-05  -1.0570221e-04   1.1526374e-04  -7.5883068e-05  -8.3399224e-05   9.1018299e-05   3.0505928e-05  -1.2558028e-04  -1.9824773e-04
  -3.0407181e-05  -4.2130331e-05  -1.0309412e-04  -6.4125460e-05  -2.7831117e-05  -2.3816867e-05   3.7275412e-05  -4.2984478e-05  -1.0847817e-04  -5.7924853e-05  -8.1958405e-05  -6.2685224e-05   6.6741147e-05   1.4507756e-05  -2.8121510e-05  -8.3785446e-05  -4.6890226e-05  -6.5919427e-05  -6.4496209e-05  -4.7576186e-05  -1.4555513e-05  -4.5864455e-05   5.9070575e-06  -9.0714475e-05  -4.5918364e-05  -5.8282746e-05  -7.3698799e-05  -9.6682879e-05  -6.1152507e-05  -3.6343951e-05   2.2413185e-05  -5.8611769e-05  -6.6415802e-05  -2.4561832e-05  -3.3729296e-05  -2.3963973e-05   4.6347489e-05   4.6099184e-05  -1.0580040e-04  -1.9024141e-04   5.3166117e-04  -2.2084541e-04   3.4466337e-04  -1.9226606e-04  -1.9755214e-04  -4.3127131e-05   1.2279687e-04  -1.9813543e-04  -2.2357342e-04  -2.2358833e-04  -2.5102666e-04  -8.3884543e-05  -2.2012746e-04  -1.1219832e-05  -1.5695524e-04   2.8603255e-07  -5.0194305e-06  -1.7089767e-04   9.9343052e-05   4.1594548e-04  -1.0424067e-04   2.3351252e-04   4.7625661e-04   1.2348852e-04   2.7940820e-04  -1.6116112e-04   7.5031824e-05  -5.4824843e-05  -1.7391197e-04  -8.2080896e-05   4.0502439e-04   1.5352842e-04  -1.2899122e-05  -2.5399153e-04  -1.0780584e-04  -1.2074621e-04  -3.0748928e-05  -5.5423171e-04  -7.9816117e-05  -1.4094435e-04   4.9702408e-05   1.8186063e-04   3.6650829e-04   2.3780452e-04   9.1105363e-05  -2.1517312e-05   1.6423015e-04   1.7914214e-04  -4.7702688e-04   2.8486658e-04   2.2807540e-04   1.6629089e-04   1.9715901e-04   2.4423273e-06  -6.6686360e-05   1.5785278e-04   9.5398997e-06  -9.6894461e-05   3.1118863e-05  -3.8326190e-04   6.5548831e-05   1.7167694e-04  -8.4077183e-06  -2.2431013e-06  -6.3976622e-05  -1.1951204e-05   5.0498698e-05   6.8112353e-05  -1.3756776e-04   2.8551416e-06  -1.4946160e-04   2.4923305e-04   2.3173288e-04  -1.1488242e-04  -5.2195461e-05  -7.0268289e-05  -1.8699673e-04  -1.6217558e-04  -2.5180974e-04  -9.6883460e-05   1.3348819e-05  -6.7163528e-05  -2.1023296e-05  -8.5208596e-05  -1.3412788e-04  -1.2430323e-04   7.5285191e-05  -5.0321599e-05  -2.4092753e-05  -8.9470278e-05  -1.1737570e-04  -1.3698617e-04  -1.4963178e-04  -1.7224517e-04  -1.8445336e-04  -2.3248559e-04  -1.2107514e-04  -1.9453370e-04  -1.3347967e-04  -1.1218121e-04  -1.8010975e-04  -7.9892629e-05  -6.6009010e-05  -1.5838109e-05  -6.3289251e-05  -1.2279819e-04  -9.4732259e-05  -1.0265164e-04  -6.9196886e-05  -6.3225499e-06  -1.4955246e-04  -3.1608847e-05   1.3727462e-04  -8.1419961e-05   2.9227975e-04  -9.9553243e-05   1.1454999e-04   5.7032989e-05  -7.3346886e-05  -1.5725192e-04   1.6577474e-04   3.9247137e-05   3.6590089e-05   5.0512661e-05  -9.5194998e-06  -1.4813697e-04  -1.2100715e-04   1.0912008e-04   5.5748232e-05   1.0286890e-04   7.4581327e-05  -4.6580841e-05   1.5929239e-05   2.7252626e-04   2.8266926e-05   3.6078470e-04   3.3972850e-04   9.1912361e-05   1.7130217e-04   4.4344770e-05   3.3478501e-05  -3.2931107e-05  -1.8674485e-04   2.7412389e-05   3.2270865e-04   1.1604451e-04   5.3670917e-05  -1.5445702e-04  -1.5109451e-04  -9.4035308e-05   7.9189780e-05   4.2821865e-05   1.4349119e-04  -1.3037001e-04   1.1541997e-04  -8.5121214e-05   7.7326280e-05   8.1693666e-05   7.5437418e-05  -8.0388429e-05  -1.2048414e-04  -1.0472933e-04  -2.0508101e-05  -4.2615731e-06   2.1517959e-05   3.4692636e-05  -6.6956855e-05  -4.9351731e-05  -1.0603483e-04  -1.3225816e-04  -1.2172431e-04   6.7792157e-05  -7.2244750e-05   4.6070293e-05  -8.6468604e-06  -4.1287675e-05  -3.9624997e-05  -8.7274554e-05   6.3071515e-05   3.0202639e-05   7.1011088e-05  -1.4681502e-04   3.8644891e-05  -3.1436288e-05  -2.9099436e-05  -2.0071266e-05  -7.1127266e-06  -2.6943591e-05   2.0384178e-05   6.9417349e-05  -1.2301190e-05  -6.0182811e-05   1.0060239e-05  -3.5949820e-05   1.1656723e-05  -7.9521892e-05  -2.1839716e-05   2.5847084e-05  -1.2680972e-05   1.6991519e-05   1.4454891e-04   4.1640853e-05  -2.8463389e-05   2.7812910e-05   9.8283093e-06   4.7226529e-05   2.7093145e-05   1.4510038e-05   3.3027728e-05   3.7941278e-05  -4.0805966e-05  -4.3151488e-06   3.4691500e-05   4.5800442e-05   4.8551212e-05   2.8353978e-05   4.0217507e-06  -5.3062815e-05  -3.7446928e-05   3.2450853e-05   6.5710919e-05   1.4984644e-05  -1.1790468e-05  -1.0380618e-05   2.5384024e-05   7.6957527e-05  -7.6735686e-05  -2.2990946e-04  -7.1403244e-05  -1.0303718e-05  -7.0107450e-05  -1.2630325e-04   5.4060780e-05   1.1150652e-04  -6.4657998e-05  -4.1120349e-05  -1.7899885e-04  -1.3209626e-04  -1.6418454e-04  -3.3020519e-05   5.6413052e-05  -3.1597318e-05  -5.3855187e-05  -1.8679969e-04  -1.9181918e-04  -1.3973019e-04  -2.8349124e-04  -2.9310189e-04  -2.6428742e-04  -3.7985039e-04  -2.2333932e-04  -1.7360461e-04  -2.4370544e-04  -1.8218664e-04  -2.2713926e-05   4.3301835e-06  -5.4156090e-05  -2.6642361e-04  -1.0377407e-04  -7.8020181e-05  -6.7499162e-05  -7.1441161e-05  -2.5153290e-04  -2.6233868e-04  -1.3769373e-04  -9.8955190e-05  -5.8874917e-05  -1.4169478e-04  -9.0878335e-05  -4.5679499e-05   6.7999157e-05  -4.3461857e-05   2.9766580e-06  -5.7762428e-05  -8.1060777e-05  -5.8085804e-05   1.6995607e-04   1.9474197e-04  -6.3015699e-05  -6.5824962e-05  -1.0898086e-04  -2.5973129e-05  -1.1528383e-06  -2.0019161e-05   5.2118433e-05  -9.5928413e-05  -7.9650614e-05  -7.8396524e-05  -4.5504709e-05  -6.4998978e-05  -6.0589406e-05  -7.3727686e-05  -4.2300916e-05  -1.1351481e-04  -2.2931975e-05   6.0030631e-06   6.4548811e-06  -7.5914565e-05  -1.1388188e-04  -1.1094816e-04  -1.1972418e-04  -1.4880264e-05   7.2530991e-05   1.3856263e-04   1.6496653e-04   5.2475154e-05   1.7371975e-04   8.1124573e-05   5.4935571e-04   3.3689102e-04   1.5088114e-04   4.2352495e-05   4.3954762e-05   1.0367767e-04   3.0980305e-04   5.4556587e-04   3.4253360e-04   4.1380904e-05   1.3979564e-04   3.1039037e-04   1.3204058e-04   1.1967731e-04   1.5582375e-04   2.0949573e-04   1.1681568e-04   1.9581436e-04   2.4596680e-04   1.6392174e-04   2.7450641e-04   5.7015041e-05   1.9889287e-04   3.0228959e-04   7.4313839e-04   2.0551562e-05   4.0393022e-04   1.0461637e-04   9.8314823e-05   5.2739201e-04   6.3492112e-04   5.0550855e-04   9.9893244e-05   1.0370662e-04  -1.4106238e-05   2.5872500e-04  -2.6003051e-05  -1.9459898e-05  -1.5393271e-04  -5.4976619e-05   5.9580932e-05   5.1977931e-05   4.0825775e-06  -1.5663701e-05  -2.5213475e-05  -1.2948125e-04   1.0428718e-04   1.2401230e-04   9.5742272e-05   5.9746403e-06   6.5935977e-05   1.4253691e-04   1.4089990e-04   4.2876257e-05   1.7404596e-04   1.5943815e-04  -2.4735200e-05  -5.5543148e-05  -1.5248289e-04   3.5999846e-05   1.0249657e-04  -3.2882839e-05  -9.5820670e-05   8.8422970e-05  -1.0079411e-04  -9.4093248e-05   7.4874659e-05   2.6792358e-05  -1.1228958e-04  -1.8616600e-04
  -4.3148463e-05  -5.2487560e-05  -1.0048037e-04  -7.3059691e-05  -3.2176708e-05  -3.5050901e-05   3.9519937e-05  -4.0741945e-05  -1.0687088e-04  -6.3479274e-05  -9.5609364e-05  -7.3759564e-05   6.7721185e-05   1.4750607e-05  -2.6207845e-05  -8.4215389e-05  -5.2342118e-05  -7.3260965e-05  -7.5567099e-05  -6.0101883e-05  -2.8187647e-05  -5.2673835e-05  -6.1168137e-06  -9.7846623e-05  -4.4338810e-05  -6.6621167e-05  -8.2922691e-05  -1.0334481e-04  -6.0166189e-05  -3.3589804e-05   2.5581407e-05  -7.1397731e-05  -6.9985422e-05  -2.9231972e-05  -3.5975746e-05  -2.4842960e-05   4.4907571e-05   4.1607948e-05  -1.2111394e-04  -1.8725242e-04   5.1307900e-04  -2.0776914e-04   3.0622725e-04  -1.9965719e-04  -1.5200994e-04  -2.1788031e-05   1.2767607e-04  -1.8740256e-04  -2.2916434e-04  -2.3292003e-04  -2.2153931e-04  -5.7925093e-05  -1.9160363e-04  -9.2510378e-06  -1.7132322e-04  -1.3755429e-05  -1.2746920e-05  -1.9038657e-04   7.6511154e-05   3.6684705e-04  -9.1486599e-05   1.9379432e-04   4.3579482e-04   8.7296629e-05   2.2516461e-04  -1.4879328e-04   8.4394509e-05  -3.4506684e-05  -1.1443165e-04  -9.7294029e-05   3.3862075e-04   1.2887150e-04   4.4528553e-06  -2.1669970e-04  -7.3337699e-05  -8.9291770e-05  -6.2886221e-05  -6.5352513e-04  -1.3591835e-04  -1.5807535e-04   4.0606788e-05   1.7095284e-04   3.1657904e-04   2.2461509e-04   7.6411791e-05  -3.0489486e-05   1.7005057e-04   1.5736429e-04  -6.6692240e-04   2.1586736e-04   2.0044548e-04   2.0193041e-04   2.1536647e-04  -7.5318345e-05  -1.0869998e-04   1.5542982e-04   2.1225131e-05  -1.2669310e-04   3.6110443e-05  -4.7812330e-04   6.7937018e-05   1.6448299e-04  -6.9842834e-05  -2.1445019e-05  -6.8544876e-05  -2.2937013e-05  -1.3558360e-05   6.9484293e-05  -3.1541553e-04   2.8175903e-06  -1.4075610e-04   2.0845852e-04   2.7821441e-04  -1.3301652e-04  -5.7682909e-05  -7.2417223e-05  -1.9474697e-04  -1.4325304e-04  -2.8075389e-04  -9.3784847e-05  -2.9133514e-06  -7.3922057e-05  -1.8070453e-05  -7.4176170e-05  -1.2039107e-04  -1.1579027e-04   7.2803799e-05  -5.6975173e-05  -2.3458304e-05  -8.1305445e-05  -1.0753886e-04  -1.3470339e-04  -1.4421841e-04  -1.6325625e-04  -1.8628396e-04  -2.5494029e-04  -1.1912283e-04  -2.1295632e-04  -1.4212233e-04  -1.1056226e-04  -1.8532775e-04  -6.4384769e-05  -6.4965811e-05  -2.4588265e-05  -7.0999559e-05  -1.1340877e-04  -1.0751546e-04  -1.0867524e-04  -6.6754998e-05  -6.9037084e-06  -1.5748022e-04  -3.5216012e-05   1.4817778e-04  -7.5526868e-05   3.1487308e-04  -8.1768065e-05   1.1781838e-04   6.0772264e-05  -7.8077242e-05  -1.5516180e-04   1.8227672e-04   4.8670265e-05   4.7578270e-05   5.4947345e-05   1.1333074e-05  -1.5163017e-04  -1.2239401e-04   1.1865464e-04   5.5251729e-05   1.0266891e-04   8.1605878e-05  -3.9673643e-05   1.6627467e-05   2.7856775e-04   3.1387170e-05   3.7025817e-04   3.4651092e-04   9.3884471e-05   1.7127511e-04   5.0103999e-05   3.8491850e-05  -3.2577967e-05  -1.8892476e-04   3.6187162e-05   3.2616267e-04   1.1583150e-04   5.9136194e-05  -1.5149828e-04  -1.6273514e-04  -1.0152070e-04   9.8608585e-05   3.9932892e-05   1.3010015e-04  -1.3188496e-04   1.1288142e-04  -8.5062297e-05   7.9143805e-05   8.0400240e-05   7.5636506e-05  -7.5021973e-05  -1.2093881e-04  -1.0325361e-04  -3.2050936e-05  -1.1875811e-05   1.9268285e-05   3.7672721e-05  -7.0345838e-05  -5.2789783e-05  -1.1167364e-04  -1.4037667e-04  -1.2987986e-04   6.4867977e-05  -7.6251451e-05   4.1206177e-05  -1.7677879e-05  -4.6463536e-05  -4.6997174e-05  -7.8648232e-05   6.3981782e-05   3.1521212e-05   6.6462784e-05  -1.6019600e-04   2.4198445e-05  -3.4045732e-05  -2.7545022e-05  -2.4460017e-05  -4.5583813e-06  -3.1128471e-05  -4.7466394e-06   5.2902362e-05  -1.7339544e-05  -7.8308461e-05  -5.3569862e-06  -4.3889949e-05   2.4964161e-06  -8.6392706e-05  -2.0010865e-05   2.0380992e-05  -2.1920224e-05   1.0163604e-05   1.3426329e-04   3.9097548e-05  -3.1705153e-05   2.8616865e-05   4.8583868e-06   4.2627419e-05   2.3064088e-05   1.1765695e-05   2.8628210e-05   2.0589663e-05  -5.6885838e-05  -1.7201197e-05   3.0327913e-05   4.0620134e-05   4.2957318e-05   2.5298951e-05   4.6113051e-06  -5.3333825e-05  -4.5125031e-05   2.3584897e-05   5.9443646e-05   1.0876971e-05  -1.9175529e-05  -1.3479362e-05   2.4485889e-05   7.9686150e-05  -9.9355726e-05  -2.3668790e-04  -6.9654351e-05  -2.2607852e-05  -7.9325853e-05  -1.4327136e-04   6.3369810e-05   1.1487210e-04  -6.5314231e-05  -4.9422270e-05  -1.9392472e-04  -1.4500044e-04  -1.8943199e-04  -4.4294379e-05   5.0379005e-05  -2.3221102e-05  -5.7582683e-05  -1.8716104e-04  -1.9606186e-04  -1.5270288e-04  -2.9310377e-04  -2.9935626e-04  -2.7798738e-04  -3.7807944e-04  -2.2392034e-04  -1.8037420e-04  -2.4792697e-04  -1.8007553e-04  -2.2297600e-05  -6.0238619e-06  -6.8981895e-05  -2.7241358e-04  -1.0153981e-04  -8.4134075e-05  -7.5616850e-05  -8.1210400e-05  -2.6925268e-04  -2.6660205e-04  -1.4246797e-04  -1.0710930e-04  -5.8069437e-05  -1.4664417e-04  -9.9043925e-05  -5.2026581e-05   5.2535215e-05  -5.5484725e-05   2.7924231e-06  -6.1441240e-05  -8.7891610e-05  -6.6245244e-05   1.6939508e-04   1.9341937e-04  -7.3744867e-05  -7.0860554e-05  -1.1450923e-04  -3.6300415e-05  -9.3512289e-06  -3.1227060e-05   3.9147699e-05  -1.0668595e-04  -8.9259103e-05  -8.4565273e-05  -5.0796195e-05  -7.2223023e-05  -6.8192674e-05  -8.0929900e-05  -4.4974268e-05  -1.1412186e-04  -3.3687407e-05  -6.4373780e-06   1.1728771e-06  -8.3531577e-05  -1.2430480e-04  -1.2283345e-04  -1.3313828e-04  -2.4287931e-05   5.7913504e-05   1.3012631e-04   1.6580331e-04   4.3626772e-05   1.8036047e-04   7.0495597e-05   5.7486076e-04   3.7157929e-04   1.5348926e-04   3.6439893e-05   4.1491329e-05   9.4315038e-05   2.9446106e-04   5.5799137e-04   3.5922754e-04   4.5687176e-05   1.3619611e-04   3.0321704e-04   1.2508319e-04   1.0950465e-04   1.5397460e-04   2.1649283e-04   1.1119881e-04   1.8903579e-04   2.6136313e-04   1.6797139e-04   2.8602952e-04   5.7140014e-05   2.0288272e-04   3.2917298e-04   7.5392622e-04   8.4681047e-06   4.0868451e-04   1.0643407e-04   1.0046341e-04   5.4407132e-04   6.3577737e-04   5.0108765e-04   9.1425765e-05   1.1415606e-04  -1.5850329e-05   2.5845377e-04  -3.3859245e-05  -2.7627670e-05  -1.5723806e-04  -6.3161337e-05   6.2138294e-05   5.2004114e-05  -7.0342345e-06  -2.6851308e-05  -1.4905437e-05  -1.3463042e-04   9.1494328e-05   1.2346690e-04   8.7506725e-05  -9.3345802e-06   5.2098827e-05   1.1980069e-04   1.1852022e-04   4.0719706e-05   1.6177461e-04   1.5977320e-04  -3.0916926e-05  -6.0797515e-05  -1.6301647e-04   3.6633502e-05   9.5363621e-05  -2.2110820e-05  -8.5527465e-05   6.1368620e-05  -1.2437690e-04  -1.0344604e-04   5.7303636e-05   2.3708077e-05  -9.7529962e-05  -1.7359683e-04
  -5.5432799e-05  -6.2416885e-05  -9.6949962e-05  -8.1345573e-05  -3.6174413e-05  -4.5817436e-05   4.0572582e-05  -3.7770760e-05  -1.0401080e-04  -6.8390445e-05  -1.0803914e-04  -8.3892036e-05   6.7813235e-05   1.4453050e-05  -2.4543748e-05  -8.3852323e-05  -5.7278001e-05  -7.9920614e-05  -8.5878800e-05  -7.2004191e-05  -4.1784441e-05  -5.8929833e-05  -1.8214855e-05  -1.0383748e-04  -4.2047738e-05  -7.4287217e-05  -9.1464736e-05  -1.0868216e-04  -5.8562477e-05  -3.0322135e-05   2.6927948e-05  -8.3330072e-05  -7.3115470e-05  -3.3607881e-05  -3.7851893e-05  -2.6266569e-05   4.2433360e-05   3.6500915e-05  -1.3926142e-04  -1.8143726e-04   4.8738459e-04  -1.8761970e-04   2.5832311e-04  -2.0029061e-04  -1.0892812e-04   3.7089205e-06   1.3051130e-04  -1.7155343e-04  -2.2680230e-04  -2.3688813e-04  -1.8566442e-04  -3.3467331e-05  -1.6251727e-04  -6.8551286e-06  -1.8378844e-04  -2.9152445e-05  -1.8036529e-05  -2.0237890e-04   5.7014911e-05   3.0693295e-04  -7.4063726e-05   1.5116030e-04   3.9155836e-04   4.9297133e-05   1.6586294e-04  -1.3139397e-04   9.2651178e-05  -8.8574926e-06  -4.8616965e-05  -1.0689325e-04   2.6259268e-04   1.0306153e-04   2.3902853e-05  -1.7872495e-04  -3.2622430e-05  -5.2475615e-05  -1.0239094e-04  -7.4910223e-04  -1.9786472e-04  -1.8179687e-04   2.7398322e-05   1.5521622e-04   2.5032452e-04   2.0500863e-04   5.4972991e-05  -4.3084513e-05   1.7165922e-04   1.2943621e-04  -8.7328716e-04   1.2950235e-04   1.6266840e-04   2.3420474e-04   2.3262711e-04  -1.5976064e-04  -1.5153443e-04   1.4770523e-04   3.4285257e-05  -1.5814992e-04   3.9706592e-05  -5.7734978e-04   6.5622405e-05   1.5309906e-04  -1.3454014e-04  -4.5198136e-05  -7.5299475e-05  -3.2952323e-05  -8.7598544e-05   6.7972233e-05  -5.0133705e-04   4.5231621e-06  -1.3274245e-04   1.5464564e-04   3.2127809e-04  -1.5093538e-04  -6.3520120e-05  -7.4284310e-05  -1.9794563e-04  -1.2189524e-04  -3.0289351e-04  -8.8484299e-05  -1.8673645e-05  -8.0376644e-05  -1.5565460e-05  -6.1476921e-05  -1.0372726e-04  -1.0410082e-04   6.8032558e-05  -6.2146579e-05  -2.1557789e-05  -7.2362268e-05  -9.4973813e-05  -1.2920148e-04  -1.3590278e-04  -1.5076043e-04  -1.8461348e-04  -2.7248448e-04  -1.1538120e-04  -2.2749146e-04  -1.4689021e-04  -1.0618437e-04  -1.8609088e-04  -4.7956871e-05  -6.3382435e-05  -3.3542451e-05  -7.9721550e-05  -1.0124846e-04  -1.1665290e-04  -1.1242568e-04  -6.3339310e-05  -7.0710453e-06  -1.6445319e-04  -3.8922974e-05   1.5866481e-04  -6.9100123e-05   3.3595278e-04  -6.4385959e-05   1.2074033e-04   6.4409232e-05  -8.0454187e-05  -1.5113115e-04   1.9650801e-04   5.7693758e-05   5.8316526e-05   5.9248953e-05   3.2859732e-05  -1.5253480e-04  -1.2050813e-04   1.2669308e-04   5.4292687e-05   1.0280718e-04   8.8655334e-05  -3.2741540e-05   1.7624335e-05   2.8391127e-04   3.4683065e-05   3.7720449e-04   3.4900589e-04   9.6707516e-05   1.7271665e-04   5.5426176e-05   4.2607990e-05  -3.1418942e-05  -1.8708937e-04   4.4753494e-05   3.3221168e-04   1.1618421e-04   6.4245106e-05  -1.4448018e-04  -1.7260132e-04  -1.0875193e-04   1.1527868e-04   3.8682824e-05   1.1693710e-04  -1.2885050e-04   1.1234163e-04  -8.3022754e-05   8.1202115e-05   7.7793444e-05   7.4187141e-05  -6.7736466e-05  -1.1802371e-04  -9.9023016e-05  -4.5916776e-05  -1.9696905e-05   1.6832431e-05   4.0453173e-05  -7.0983992e-05  -5.4724802e-05  -1.1522085e-04  -1.4514580e-04  -1.3559316e-04   6.5208008e-05  -7.8965798e-05   3.9276490e-05  -2.4434467e-05  -5.0344011e-05  -5.1628147e-05  -6.8802673e-05   6.3967133e-05   3.3704579e-05   6.0928793e-05  -1.7139459e-04   1.0845021e-05  -3.4844824e-05  -2.5495942e-05  -2.8569753e-05  -1.4276348e-06  -3.5258876e-05  -2.9653999e-05   3.5908526e-05  -2.0627929e-05  -9.5549854e-05  -2.0831858e-05  -5.0849362e-05  -5.3909013e-06  -9.1899148e-05  -1.7261909e-05   1.5051096e-05  -3.0061560e-05   3.7030871e-06   1.2440259e-04   3.7267020e-05  -3.4160239e-05   2.8142470e-05  -9.3573393e-07   3.9331931e-05   1.9834752e-05   9.0538672e-06   2.4267154e-05   2.8596002e-06  -7.2328359e-05  -2.9381284e-05   2.5770334e-05   3.6028246e-05   3.8697442e-05   2.2033517e-05   5.1676197e-06  -5.2816703e-05  -5.1466821e-05   1.4837104e-05   5.5277729e-05   7.3717395e-06  -2.7027945e-05  -1.5702897e-05   2.3302412e-05   8.0310285e-05  -1.2437548e-04  -2.4505204e-04  -6.9744379e-05  -4.0253344e-05  -9.0304823e-05  -1.6058257e-04   7.0207813e-05   1.1680865e-04  -6.6672327e-05  -6.0067610e-05  -2.1032684e-04  -1.5946981e-04  -2.1488744e-04  -5.7132315e-05   4.2373581e-05  -1.7245862e-05  -6.4656975e-05  -1.8954499e-04  -2.0158529e-04  -1.6667223e-04  -3.0231659e-04  -3.0413036e-04  -2.9064959e-04  -3.7352277e-04  -2.2139604e-04  -1.8860718e-04  -2.5334362e-04  -1.7880815e-04  -2.3214080e-05  -1.5786660e-05  -8.5197559e-05  -2.7896131e-04  -1.0195376e-04  -9.1862117e-05  -8.5573182e-05  -9.3336133e-05  -2.8685348e-04  -2.6901146e-04  -1.4455694e-04  -1.1308416e-04  -5.5329520e-05  -1.4853287e-04  -1.0497709e-04  -5.6151506e-05   3.7108706e-05  -6.7453211e-05   3.4499296e-06  -6.2984994e-05  -9.1764565e-05  -7.1826677e-05   1.6923087e-04   1.9247172e-04  -8.2746119e-05  -7.4163144e-05  -1.1727540e-04  -4.4410164e-05  -1.5979720e-05  -4.0871073e-05   2.5998330e-05  -1.1467881e-04  -9.6344246e-05  -8.8048157e-05  -5.3700252e-05  -7.6977770e-05  -7.2768997e-05  -8.5600269e-05  -4.6192603e-05  -1.1343670e-04  -4.1970141e-05  -1.7305605e-05  -1.8396580e-06  -8.9025438e-05  -1.3253535e-04  -1.3149840e-04  -1.4355963e-04  -3.0974363e-05   4.2425700e-05   1.1996497e-04   1.6871129e-04   3.4314411e-05   1.9046648e-04   6.0189498e-05   5.9883602e-04   4.0421601e-04   1.5513180e-04   2.9437271e-05   3.9486212e-05   8.4482614e-05   2.7504771e-04   5.6622250e-04   3.7268026e-04   4.8207332e-05   1.3292497e-04   2.9625366e-04   1.1846392e-04   9.8464481e-05   1.5255605e-04   2.2788399e-04   1.0486453e-04   1.8613171e-04   2.7712920e-04   1.7119446e-04   2.9767403e-04   5.3465000e-05   2.0407776e-04   3.5401843e-04   7.5639997e-04  -5.1645810e-06   4.1602431e-04   1.0879022e-04   1.0044818e-04   5.5534551e-04   6.3287625e-04   4.9134122e-04   8.1665359e-05   1.2241566e-04  -1.7011466e-05   2.5572914e-04  -4.0974244e-05  -3.4176239e-05  -1.5876291e-04  -6.9111047e-05   6.5450720e-05   5.1556709e-05  -1.6797707e-05  -3.6396782e-05  -6.6666738e-06  -1.3757645e-04   7.8434681e-05   1.2211385e-04   7.9830575e-05  -2.2665895e-05   3.9230738e-05   9.6967030e-05   9.5837089e-05   3.6981825e-05   1.4701021e-04   1.5625123e-04  -3.8871352e-05  -6.5812634e-05  -1.7188850e-04   3.6233775e-05   8.5883506e-05  -1.0137177e-05  -7.5445138e-05   3.4955097e-05  -1.4575852e-04  -1.1131947e-04   3.8911216e-05   2.1454015e-05  -8.2090698e-05  -1.6144514e-04
  -6.6966565e-05  -7.1674115e-05  -9.2769553e-05  -8.8882994e-05  -3.9824650e-05  -5.5827424e-05   4.0325372e-05  -3.4271473e-05  -1.0010030e-04  -7.2546716e-05  -1.1893778e-04  -9.2814439e-05   6.6896124e-05   1.3603832e-05  -2.3265662e-05  -8.2757374e-05  -6.1606680e-05  -8.5701609e-05  -9.5153960e-05  -8.2970691e-05  -5.4961039e-05  -6.4556766e-05  -3.0067284e-05  -1.0865543e-04  -3.9202343e-05  -8.1098192e-05  -9.9125159e-05  -1.1257283e-04  -5.6464495e-05  -2.6752817e-05   2.6177699e-05  -9.4087932e-05  -7.5757620e-05  -3.7589036e-05  -3.9371776e-05  -2.8292464e-05   3.8824995e-05   3.0847441e-05  -1.6018188e-04  -1.7432090e-04   4.5634634e-04  -1.6184300e-04   2.0309729e-04  -1.9401129e-04  -7.0693779e-05   3.2677268e-05   1.3180901e-04  -1.5150220e-04  -2.1674772e-04  -2.3551411e-04  -1.4386536e-04  -1.1676439e-05  -1.3438752e-04  -4.2694988e-06  -1.9433404e-04  -4.5176226e-05  -2.0657671e-05  -2.0654564e-04   4.1623921e-05   2.3905755e-04  -5.2814193e-05   1.0794499e-04   3.4609358e-04   1.1782591e-05   1.0526569e-04  -1.0973063e-04   9.9430880e-05   2.1583495e-05   2.1915427e-05  -1.1038923e-04   1.8208133e-04   7.7910844e-05   4.4600159e-05  -1.4188088e-04   1.3079193e-05  -1.1888469e-05  -1.4856164e-04  -8.3800593e-04  -2.6352793e-04  -2.1183731e-04   1.0250958e-05   1.3517459e-04   1.6928796e-04   1.7916006e-04   2.7319917e-05  -5.9277997e-05   1.6850822e-04   9.6156302e-05  -1.0901566e-03   2.8224088e-05   1.1606270e-04   2.6190374e-04   2.4854149e-04  -2.4792600e-04  -1.9379590e-04   1.3489974e-04   4.8048524e-05  -1.8999466e-04   4.1563802e-05  -6.7794779e-04   5.8445357e-05   1.3807248e-04  -1.9957975e-04  -7.3099156e-05  -8.4163716e-05  -4.2037909e-05  -1.7014738e-04   6.3384479e-05  -6.8739345e-04   8.1683150e-06  -1.2615511e-04   8.9658302e-05   3.5777828e-04  -1.6958400e-04  -6.9167963e-05  -7.5474902e-05  -1.9651643e-04  -9.9086052e-05  -3.1754187e-04  -8.1133646e-05  -3.3578325e-05  -8.6586825e-05  -1.3602574e-05  -4.7649196e-05  -8.4693428e-05  -8.9615652e-05   6.0916052e-05  -6.5837115e-05  -1.8663625e-05  -6.3020966e-05  -8.0195982e-05  -1.2073618e-04  -1.2494771e-04  -1.3513149e-04  -1.7938119e-04  -2.8442675e-04  -1.1001978e-04  -2.3750002e-04  -1.4755969e-04  -9.9157619e-05  -1.8235550e-04  -3.1303062e-05  -6.1371010e-05  -4.2563895e-05  -8.9536614e-05  -8.6646018e-05  -1.2176801e-04  -1.1378665e-04  -5.9089026e-05  -7.0181186e-06  -1.7053224e-04  -4.2726985e-05   1.6863950e-04  -6.2301844e-05   3.5540665e-04  -4.7890872e-05   1.2368668e-04   6.8035631e-05  -8.0018183e-05  -1.4502472e-04   2.0842552e-04   6.6110651e-05   6.8620265e-05   6.3461938e-05   5.5058991e-05  -1.5070632e-04  -1.1528060e-04   1.3312199e-04   5.3152614e-05   1.0354958e-04   9.5714026e-05  -2.5981546e-05   1.8918883e-05   2.8912180e-04   3.8173075e-05   3.8208122e-04   3.4767256e-04   1.0040045e-04   1.7583077e-04   6.0200520e-05   4.5774611e-05  -2.9232889e-05  -1.8131526e-04   5.2811915e-05   3.4105553e-04   1.1725737e-04   6.8831909e-05  -1.3372918e-04  -1.8039736e-04  -1.1538795e-04   1.2849011e-04   3.9253432e-05   1.0478722e-04  -1.2139553e-04   1.1396894e-04  -7.9138855e-05   8.3524123e-05   7.4164407e-05   7.1176407e-05  -5.8877312e-05  -1.1188890e-04  -9.2258785e-05  -6.1741309e-05  -2.7401958e-05   1.4321417e-05   4.2957021e-05  -6.8894284e-05  -5.5177435e-05  -1.1665108e-04  -1.4648464e-04  -1.3880027e-04   6.8796971e-05  -8.0405263e-05   4.0440136e-05  -2.8683834e-05  -5.2845956e-05  -5.3483626e-05  -5.8231876e-05   6.3101646e-05   3.6859276e-05   5.4762510e-05  -1.8009041e-04  -1.1346876e-06  -3.3832702e-05  -2.3069656e-05  -3.2228692e-05   2.3658349e-06  -3.9006407e-05  -5.3312382e-05   1.9201438e-05  -2.1973777e-05  -1.1118301e-04  -3.5758674e-05  -5.6540573e-05  -1.1416082e-05  -9.5667400e-05  -1.3721342e-05   1.0159630e-05  -3.6700735e-05  -2.0539016e-06   1.1559541e-04   3.6357976e-05  -3.5701307e-05   2.6277818e-05  -7.4862470e-06   3.7584591e-05   1.7603941e-05   6.4690348e-06   2.0117204e-05  -1.4618260e-05  -8.6622873e-05  -4.0436892e-05   2.1004901e-05   3.2304430e-05   3.6058065e-05   1.8698124e-05   5.5751188e-06  -5.1562809e-05  -5.6062569e-05   6.5230013e-06   5.3471741e-05   4.6597734e-06  -3.5147641e-05  -1.6882781e-05   2.1936570e-05   7.8984087e-05  -1.5070682e-04  -2.5470652e-04  -7.1333075e-05  -6.1991393e-05  -1.0259203e-04  -1.7762530e-04   7.4877406e-05   1.1762274e-04  -6.8309224e-05  -7.2325465e-05  -2.2745677e-04  -1.7497285e-04  -2.3922409e-04  -7.0703367e-05   3.3145149e-05  -1.3663634e-05  -7.4605055e-05  -1.9388647e-04  -2.0821809e-04  -1.8115719e-04  -3.1109622e-04  -3.0744192e-04  -3.0197023e-04  -3.6652743e-04  -2.1608019e-04  -1.9801466e-04  -2.5980621e-04  -1.7826448e-04  -2.5133531e-05  -2.4428689e-05  -1.0130139e-04  -2.8586587e-04  -1.0476908e-04  -1.0088095e-04  -9.6812186e-05  -1.0700365e-04  -3.0347738e-04  -2.6939201e-04  -1.4337987e-04  -1.1618534e-04  -5.0348648e-05  -1.4661986e-04  -1.0816936e-04  -5.7562873e-05   2.2398574e-05  -7.9102471e-05   5.1277512e-06  -6.2013927e-05  -9.2102823e-05  -7.4179605e-05   1.6976157e-04   1.9227202e-04  -8.9454145e-05  -7.5375973e-05  -1.1669886e-04  -4.9586527e-05  -2.0338016e-05  -4.8150057e-05   1.3565766e-05  -1.1903373e-04  -1.0023715e-04  -8.8191101e-05  -5.3827600e-05  -7.8699098e-05  -7.3769755e-05  -8.7156823e-05  -4.5808473e-05  -1.1158945e-04  -4.7150534e-05  -2.5577502e-05  -2.0271487e-06  -9.1921011e-05  -1.3794973e-04  -1.3621955e-04  -1.5020582e-04  -3.4551522e-05   2.6681764e-05   1.0838534e-04   1.7274264e-04   2.4807952e-05   2.0319251e-04   5.0641804e-05   6.2106363e-04   4.3385839e-04   1.5567976e-04   2.1634501e-05   3.7687768e-05   7.4463291e-05   2.5239459e-04   5.7101440e-04   3.8277495e-04   4.8431329e-05   1.2991627e-04   2.9004559e-04   1.1225019e-04   8.6913759e-05   1.5177922e-04   2.4240222e-04   9.8256066e-05   1.8655010e-04   2.9164497e-04   1.7319140e-04   3.0860447e-04   4.6046615e-05   2.0266670e-04   3.7607363e-04   7.5139213e-04  -2.0353968e-05   4.2560091e-04   1.1142756e-04   9.8208401e-05   5.6105199e-04   6.2758624e-04   4.7771493e-04   7.1071910e-05   1.2821836e-04  -1.7678333e-05   2.5067755e-04  -4.7192080e-05  -3.8843413e-05  -1.5865475e-04  -7.2696464e-05   6.9657720e-05   5.0730706e-05  -2.4624941e-05  -4.3899285e-05  -6.0527721e-07  -1.3822833e-04   6.5818484e-05   1.2020830e-04   7.3116605e-05  -3.3442913e-05   2.7818507e-05   7.4855802e-05   7.3560228e-05   3.1660000e-05   1.3019157e-04   1.4895723e-04  -4.8537004e-05  -7.0557288e-05  -1.7887793e-04   3.4863487e-05   7.4523365e-05   2.5386908e-06  -6.6067358e-05   1.0010668e-05  -1.6413937e-04  -1.1762096e-04   2.0376427e-05   2.0254988e-05  -6.6707301e-05  -1.5052758e-04
  -7.7481383e-05  -8.0035551e-05  -8.8214699e-05  -9.5585357e-05  -4.3141187e-05  -6.4816334e-05   3.8731063e-05  -3.0460942e-05  -9.5370628e-05  -7.5851427e-05  -1.2804142e-04  -1.0029068e-04   6.4846299e-05   1.2231155e-05  -2.2463537e-05  -8.1001977e-05  -6.5245829e-05  -9.0413259e-05  -1.0313733e-04  -9.2713842e-05  -6.7340481e-05  -6.9502467e-05  -4.1361748e-05  -1.1232291e-04  -3.5994541e-05  -8.6889463e-05  -1.0571985e-04  -1.1493400e-04  -5.3998291e-05  -2.3094500e-05   2.3194094e-05  -1.0338646e-04  -7.7868842e-05  -4.1081111e-05  -4.0544567e-05  -3.0912558e-05   3.4048695e-05   2.4729610e-05  -1.8360280e-04  -1.6745760e-04   4.2181196e-04  -1.3218721e-04   1.4310351e-04  -1.8102757e-04  -3.9300943e-05   6.4197083e-05   1.3215927e-04  -1.2841429e-04  -1.9968366e-04  -2.2907536e-04  -9.6952386e-05   6.5318707e-06  -1.0852748e-04  -1.7475678e-06  -2.0301839e-04  -6.0998990e-05  -2.0512150e-05  -2.0298860e-04   3.0848198e-05   1.6657636e-04  -2.8825183e-05   6.6432511e-05   3.0186269e-04  -2.2912444e-05   4.7277947e-05  -8.4817433e-05   1.0440160e-04   5.5998993e-05   9.5330450e-05  -1.0762403e-04   1.0250365e-04   5.5218637e-05   6.5573422e-05  -1.0778487e-04   6.2181415e-05   3.0507648e-05  -2.0026455e-04  -9.1751952e-04  -3.3055938e-04  -2.4748479e-04  -1.0440581e-05   1.1160040e-04   7.5891534e-05   1.4753623e-04  -5.6690345e-06  -7.8790631e-05   1.6026411e-04   5.8644119e-05  -1.3108579e-03  -8.4572868e-05   6.2473126e-05   2.8402461e-04   2.6270898e-04  -3.3663668e-04  -2.3419172e-04   1.1744826e-04   6.1624668e-05  -2.2084571e-04   4.1435942e-05  -7.7677898e-04   4.6523249e-05   1.2016564e-04  -2.6199603e-04  -1.0450006e-04  -9.4902738e-05  -5.0289027e-05  -2.5920293e-04   5.5576831e-05  -8.6577769e-04   1.3852926e-05  -1.2160847e-04   1.6065294e-05   3.8487395e-04  -1.8998160e-04  -7.4082295e-05  -7.5607325e-05  -1.9059923e-04  -7.5824553e-05  -3.2437240e-04  -7.1979296e-05  -4.7349397e-05  -9.2647175e-05  -1.2225055e-05  -3.3281141e-05  -6.3952200e-05  -7.2851035e-05   5.1503787e-05  -6.8145276e-05  -1.5129823e-05  -5.3665149e-05  -6.3822398e-05  -1.0970544e-04  -1.1172872e-04  -1.1686371e-04  -1.7066697e-04  -2.9034959e-04  -1.0327003e-04  -2.4254683e-04  -1.4411264e-04  -8.9711321e-05  -1.7427976e-04  -1.5123003e-05  -5.9048327e-05  -5.1548860e-05  -1.0047574e-04  -7.0040067e-05  -1.2267660e-04  -1.1275708e-04  -5.4185475e-05  -6.9713099e-06  -1.7582246e-04  -4.6617870e-05   1.7806278e-04  -5.5228947e-05   3.7320002e-04  -3.2620065e-05   1.2702424e-04   7.1762977e-05  -7.6398876e-05  -1.3674788e-04   2.1810879e-04   7.3773638e-05   7.8366851e-05   6.7664690e-05   7.8033387e-05  -1.4609326e-04  -1.0679816e-04   1.3793186e-04   5.2150646e-05   1.0512413e-04   1.0278607e-04  -1.9522630e-05   2.0516044e-05   2.9476539e-04   4.1894205e-05   3.8545207e-04   3.4317709e-04   1.0492692e-04   1.8070931e-04   6.4367443e-05   4.8002929e-05  -2.5820439e-05  -1.7182547e-04   6.0131660e-05   3.5267046e-04   1.1915277e-04   7.2774593e-05  -1.1974769e-04  -1.8586946e-04  -1.2103424e-04   1.3773331e-04   4.1710742e-05   9.4292237e-05  -1.0992064e-04   1.1774186e-04  -7.3634016e-05   8.6093354e-05   6.9847172e-05   6.6740860e-05  -4.8873247e-05  -1.0285344e-04  -8.3312969e-05  -7.9052704e-05  -3.4678518e-05   1.1830347e-05   4.5090051e-05  -6.4283268e-05  -5.4256196e-05  -1.1605461e-04  -1.4449456e-04  -1.3955265e-04   7.5330424e-05  -8.0650337e-05   4.4600835e-05  -3.0370009e-05  -5.3966658e-05  -5.2729322e-05  -4.7460492e-05   6.1491457e-05   4.1037810e-05   4.8373969e-05  -1.8606267e-04  -1.1643017e-05  -3.1118365e-05  -2.0393797e-05  -3.5287710e-05   6.9178068e-06  -4.2030862e-05  -7.4750887e-05   3.5272063e-06  -2.1301649e-05  -1.2457182e-04  -4.9553728e-05  -6.0726768e-05  -1.5094033e-05  -9.7398927e-05  -9.5809144e-06   5.9686796e-06  -4.1510491e-05  -6.8053169e-06   1.0839422e-04   3.6507478e-05  -3.6263363e-05   2.2982949e-05  -1.4678970e-05   3.7536192e-05   1.6508284e-05   4.1073293e-06   1.6355554e-05  -3.1206714e-05  -9.9289749e-05  -4.9987309e-05   1.6040819e-05   2.9678372e-05   3.5233304e-05   1.5431661e-05   5.7208077e-06  -4.9667666e-05  -5.8607199e-05  -1.0545574e-06   5.4144323e-05   2.8852793e-06  -4.3319448e-05  -1.6900135e-05   2.0502853e-05   7.6007483e-05  -1.7709890e-04  -2.6514526e-04  -7.3935719e-05  -8.6269103e-05  -1.1560989e-04  -1.9373407e-04   7.7922540e-05   1.1771051e-04  -6.9723912e-05  -8.5322788e-05  -2.4442251e-04  -1.9083143e-04  -2.6108703e-04  -8.4052890e-05   2.3552877e-05  -1.2301740e-05  -8.6750845e-05  -1.9989598e-04  -2.1563909e-04  -1.9558841e-04  -3.1934682e-04  -3.0929090e-04  -3.1163033e-04  -3.5748433e-04  -2.0841257e-04  -2.0815414e-04  -2.6698135e-04  -1.7820563e-04  -2.7641830e-05  -3.1497610e-05  -1.1565796e-04  -2.9280691e-04  -1.0950107e-04  -1.1075080e-04  -1.0867081e-04  -1.2120308e-04  -3.1817298e-04  -2.6756014e-04  -1.3841303e-04  -1.1579456e-04  -4.2886905e-05  -1.4022947e-04  -1.0817636e-04  -5.5844792e-05   8.9541815e-06  -9.0201294e-05   7.9479837e-06  -5.8243461e-05  -8.8425655e-05  -7.2765476e-05   1.7116126e-04   1.9308712e-04  -9.3422096e-05  -7.4217359e-05  -1.1227772e-04  -5.1238980e-05  -2.1769421e-05  -5.2302496e-05   2.7959904e-06  -1.1899227e-04  -1.0035037e-04  -8.4452803e-05  -5.0920849e-05  -7.6933635e-05  -7.0796144e-05  -8.5140999e-05  -4.3769409e-05  -1.0878702e-04  -4.8890883e-05  -3.0273145e-05   1.0038051e-06  -9.1824015e-05  -1.4000987e-04  -1.3649525e-04  -1.5250312e-04  -3.4875557e-05   1.1149870e-05   9.5551643e-05   1.7674759e-04   1.5359991e-05   2.1736882e-04   4.2182437e-05   6.4124482e-04   4.5968718e-04   1.5500947e-04   1.3341297e-05   3.5796170e-05   6.4481842e-05   2.2731887e-04   5.7320544e-04   3.8946760e-04   4.5967267e-05   1.2703319e-04   2.8492855e-04   1.0641942e-04   7.5172707e-05   1.5175157e-04   2.5833379e-04   9.1758224e-05   1.8932854e-04   3.0319926e-04   1.7357770e-04   3.1793172e-04   3.5168249e-05   1.9895152e-04   3.9468078e-04   7.3990132e-04  -3.7069228e-05   4.3673936e-04   1.1403754e-04   9.3771470e-05   5.6115707e-04   6.2118565e-04   4.6170793e-04   6.0180820e-05   1.3146993e-04  -1.7958777e-05   2.4355023e-04  -5.2394578e-05  -4.1449115e-05  -1.5707504e-04  -7.3864583e-05   7.4849568e-05   4.9674205e-05  -2.9984933e-05  -4.9022074e-05   3.3753992e-06  -1.3654741e-04   5.4360102e-05   1.1802035e-04   6.7733942e-05  -4.1188348e-05   1.8268353e-05   5.4252827e-05   5.2353867e-05   2.4869335e-05   1.1185870e-04   1.3819920e-04  -5.9710328e-05  -7.4975566e-05  -1.8378715e-04   3.2684993e-05   6.1868717e-05   1.5433747e-05  -5.7745391e-05  -1.2692618e-05  -1.7883209e-04  -1.2230162e-04   2.4440581e-06   2.0333059e-05  -5.2018767e-05  -1.4153912e-04
  -8.6735882e-05  -8.7303228e-05  -8.3553119e-05  -1.0137266e-04  -4.6143549e-05  -7.2550232e-05   3.5806318e-05  -2.6556954e-05  -9.0071098e-05  -7.8223259e-05  -1.3513608e-04  -1.0612273e-04   6.1550558e-05   1.0402418e-05  -2.2174997e-05  -7.8663105e-05  -6.8119857e-05  -9.3877137e-05  -1.0960528e-04  -1.0097716e-04  -7.8566403e-05  -7.3732037e-05  -5.1799500e-05  -1.1491002e-04  -3.2639026e-05  -9.1515802e-05  -1.1108728e-04  -1.1572210e-04  -5.1287178e-05  -1.9549241e-05   1.7996132e-05  -1.1098165e-04  -7.9414031e-05  -4.3995322e-05  -4.1371876e-05  -3.4056093e-05   2.8148251e-05   1.8244572e-05  -2.0908590e-04  -1.6225754e-04   3.8555143e-04  -1.0060583e-04   8.1147343e-05  -1.6190584e-04  -1.6189952e-05   9.7154117e-05   1.3216781e-04  -1.0365284e-04  -1.7668063e-04  -2.1808925e-04  -4.6109373e-05   2.0553725e-05  -8.5944457e-05   4.4655544e-07  -2.0996546e-04  -7.5752708e-05  -1.7636268e-05  -1.9222876e-04   2.4911703e-05   9.3151179e-05  -3.3673864e-06   2.8693318e-05   2.6108664e-04  -5.2576968e-05  -4.3263619e-06  -5.7863104e-05   1.0729009e-04   9.3326060e-05   1.6965782e-04  -9.8758253e-05   2.9215709e-05   3.6645216e-05   8.5780382e-05  -7.7749466e-05   1.1285019e-04   7.2474383e-05  -2.5598133e-04  -9.8533528e-04  -3.9655607e-04  -2.8762977e-04  -3.4080473e-05   8.5462344e-05  -2.6711499e-05   1.1087651e-04  -4.2826077e-05  -1.0113265e-04   1.4681732e-04   1.8257552e-05  -1.5284323e-03  -2.0476936e-04   4.1468520e-06   2.9982393e-04   2.7473113e-04  -4.2269869e-04  -2.7160231e-04   9.5967276e-05   7.3952555e-05  -2.4932148e-04   3.9177754e-05  -8.7077481e-04   3.0214670e-05   1.0028550e-04  -3.1898843e-04  -1.3857070e-04  -1.0716468e-04  -5.7846906e-05  -3.5236066e-04   4.4430937e-05  -1.0292903e-03   2.1549550e-05  -1.1959630e-04  -6.3063490e-05   4.0025349e-04  -2.1313212e-04  -7.7753140e-05  -7.4359585e-05  -1.8052995e-04  -5.3066374e-05  -3.2340635e-04  -6.1351871e-05  -5.9781817e-05  -9.8675147e-05  -1.1419916e-05  -1.8980030e-05  -4.2239676e-05  -5.4438199e-05   3.9962043e-05  -6.9252527e-05  -1.1360648e-05  -4.4660252e-05  -4.6538327e-05  -9.6625445e-05  -9.6716507e-05  -9.6551911e-05  -1.5869489e-04  -2.9012009e-04  -9.5417834e-05  -2.4242699e-04  -1.3671786e-04  -7.8180745e-05  -1.6221360e-04  -8.8488383e-08  -5.6530894e-05  -6.0424065e-05  -1.1250777e-04  -5.1961548e-05  -1.1938379e-04  -1.0944890e-04  -4.8847816e-05  -7.1693778e-06  -1.8046693e-04  -5.0577399e-05   1.8694591e-04  -4.7917519e-05   3.8936581e-04  -1.8755998e-05   1.3108310e-04   7.5712271e-05  -6.9331602e-05  -1.2626189e-04   2.2574686e-04   8.0595789e-05   8.7496633e-05   7.1962414e-05   1.0197401e-04  -1.3874212e-04  -9.5302166e-05   1.4120754e-04   5.1618126e-05   1.0771023e-04   1.0988912e-04  -1.3427894e-05   2.2424439e-05   3.0135611e-04   4.5896206e-05   3.8794727e-04   3.3633879e-04   1.1020499e-04   1.8733153e-04   6.7918686e-05   4.9363179e-05  -2.1024693e-05  -1.5898012e-04   6.6564558e-05   3.6682933e-04   1.2191513e-04   7.5996243e-05  -1.0318631e-04  -1.8882866e-04  -1.2527181e-04   1.4273705e-04   4.6008769e-05   8.5926926e-05  -9.5078578e-05   1.2347517e-04  -6.6806393e-05   8.8858922e-05   6.5202797e-05   6.1058425e-05  -3.8214627e-05  -9.1388673e-05  -7.2650292e-05  -9.7288617e-05  -4.1240675e-05   9.4339176e-06   4.6743035e-05  -5.7532782e-05  -5.2148130e-05  -1.1362915e-04  -1.3945072e-04  -1.3801028e-04   8.4263475e-05  -7.9836806e-05   5.1424697e-05  -2.9599610e-05  -5.3777204e-05  -4.9700616e-05  -3.7012722e-05   5.9271349e-05   4.6236377e-05   4.2214174e-05  -1.8920291e-04  -2.0719242e-05  -2.6910123e-05  -1.7595932e-05  -3.7624717e-05   1.2329064e-05  -4.4000439e-05  -9.3115685e-05  -1.0426624e-05  -1.8661348e-05  -1.3521631e-04  -6.1686379e-05  -6.3230897e-05  -1.6065127e-05  -9.6889243e-05  -5.0786043e-06   2.6880095e-06  -4.4259925e-05  -1.0302408e-05   1.0324273e-04   3.7775111e-05  -3.5845900e-05   1.8295499e-05  -2.2360834e-05   3.9237077e-05   1.6614770e-05   2.0587878e-06   1.3153720e-05  -4.6287725e-05  -1.0990268e-04  -5.7700203e-05   1.0920343e-05   2.8318655e-05   3.6312995e-05   1.2356637e-05   5.5101170e-06  -4.7264352e-05  -5.8920065e-05  -7.6317046e-06   5.7276796e-05   2.1406799e-06  -5.1321935e-05  -1.5690819e-05   1.9121015e-05   7.1804435e-05  -2.0222473e-04  -2.7568220e-04  -7.6964327e-05  -1.1136128e-04  -1.2868808e-04  -2.0822581e-04   8.0073022e-05   1.1751069e-04  -7.0375494e-05  -9.8111797e-05  -2.6024908e-04  -2.0627228e-04  -2.7918918e-04  -9.6172065e-05   1.4495531e-05  -1.2845989e-05  -1.0028778e-04  -2.0708794e-04  -2.2339921e-04  -2.0935274e-04  -3.2692071e-04  -3.0967033e-04  -3.1932026e-04  -3.4681141e-04  -1.9892375e-04  -2.1847834e-04  -2.7439540e-04  -1.7829767e-04  -3.0269115e-05  -3.6647123e-05  -1.2663408e-04  -2.9937794e-04  -1.1549385e-04  -1.2096913e-04  -1.2042556e-04  -1.3481450e-04  -3.2997555e-04  -2.6334143e-04  -1.2923734e-04  -1.1141713e-04  -3.2797431e-05  -1.2880199e-04  -1.0464987e-04  -5.0687255e-05  -2.8498665e-06  -1.0057235e-04   1.1958486e-05  -5.1515469e-05  -8.0393727e-05  -6.7196451e-05   1.7346388e-04   1.9505124e-04  -9.4357554e-05  -7.0501628e-05  -1.0364245e-04  -4.8941335e-05  -1.9704381e-05  -5.2652995e-05  -5.3651364e-06  -1.1396985e-04  -9.6217483e-05  -7.6446713e-05  -4.4877066e-05  -7.1384583e-05  -6.3629467e-05  -7.9255038e-05  -4.0133589e-05  -1.0531537e-04  -4.7186657e-05  -3.0523747e-05   7.4595097e-06  -8.8446552e-05  -1.3831429e-04  -1.3209227e-04  -1.5015318e-04  -3.2058077e-05  -3.8639682e-06   8.1469929e-05   1.7949524e-04   6.1884304e-06   2.3161784e-04   3.5013337e-05   6.5904382e-04   4.8105192e-04   1.5303461e-04   4.8610779e-06   3.3491268e-05   5.4692631e-05   2.0059144e-04   5.7366554e-04   3.9279432e-04   4.0575092e-05   1.2409108e-04   2.8103255e-04   1.0088034e-04   6.3516145e-05   1.5247571e-04   2.7367530e-04   8.5676983e-05   1.9320272e-04   3.1015948e-04   1.7202894e-04   3.2481020e-04   2.1319233e-05   1.9333023e-04   4.0931159e-04   7.2303163e-04  -5.5231705e-05   4.4854226e-04   1.1629960e-04   8.7251678e-05   5.5578976e-04   6.1476867e-04   4.4475251e-04   4.9579109e-05   1.3224762e-04  -1.7958854e-05   2.3472711e-04  -5.6494776e-05  -4.1902360e-05  -1.5418505e-04  -7.2650146e-05   8.1049966e-05   4.8587832e-05  -3.2424198e-05  -5.1516721e-05   5.5582883e-06  -1.3255361e-04   4.4728855e-05   1.1582473e-04   6.3992914e-05  -4.5555581e-05   1.0898799e-05   3.5878051e-05   3.2825530e-05   1.6826298e-05   9.2635415e-05   1.2449434e-04  -7.2054281e-05  -7.8959462e-05  -1.8646593e-04   2.9953627e-05   4.8582830e-05   2.8104812e-05  -5.0665989e-05  -3.2431331e-05  -1.8929414e-04  -1.2534742e-04  -1.4124127e-05   2.1902752e-05  -3.8531495e-05  -1.3500163e-04
  -9.4518733e-05  -9.3309638e-05  -7.9026180e-05  -1.0616513e-04  -4.8847534e-05  -7.8829672e-05   3.1633199e-05  -2.2768582e-05  -8.4455081e-05  -7.9598787e-05  -1.4006067e-04  -1.1015456e-04   5.6921488e-05   8.2177591e-06  -2.2383170e-05  -7.5821156e-05  -7.0162329e-05  -9.5935370e-05  -1.1437145e-04  -1.0754064e-04  -8.8312877e-05  -7.7225531e-05  -6.1102493e-05  -1.1652257e-04  -2.9359018e-05  -9.4856599e-05  -1.1509078e-04  -1.1493342e-04  -4.8441355e-05  -1.6290963e-05   1.0759519e-05  -1.1667607e-04  -8.0364109e-05  -4.6250675e-05  -4.1842703e-05  -3.7590666e-05   2.1252350e-05   1.1503182e-05  -2.3608843e-04  -1.5983203e-04   3.4911134e-04  -6.9130324e-05   2.0113858e-05  -1.3754766e-04  -2.1266869e-06   1.3026968e-04   1.3239371e-04  -7.8704697e-05  -1.4913166e-04  -2.0328909e-04   7.0893954e-06   3.0133020e-05  -6.7274679e-05   2.0457204e-06  -2.1536747e-04  -8.8584699e-05  -1.2197633e-05  -1.7517536e-04   2.3754001e-05   2.2549198e-05   2.2191716e-05  -3.5546997e-06   2.2562278e-04  -7.5277090e-05  -4.6156918e-05  -3.0208230e-05   1.0789739e-04   1.3231036e-04   2.4290274e-04  -8.4254812e-05  -3.2812348e-05   2.3596650e-05   1.0417735e-04  -5.2700377e-05   1.6310274e-04   1.1162593e-04  -3.1392330e-04  -1.0396901e-03  -4.5921528e-04  -3.3090429e-04  -5.9918064e-05   5.7850027e-05  -1.3481043e-04   7.0166745e-05  -8.2808264e-05  -1.2563589e-04   1.2827693e-04  -2.3501286e-05  -1.7360553e-03  -3.2778803e-04  -5.6431338e-05   3.0881672e-04   2.8420763e-04  -5.0309450e-04  -3.0515926e-04   7.1181581e-05   8.3848484e-05  -2.7414361e-04   3.4740882e-05  -9.5712500e-04   1.0073321e-05   7.9421797e-05  -3.6812181e-04  -1.7435407e-04  -1.2052025e-04  -6.4903364e-05  -4.4696049e-04   2.9862316e-05  -1.1717466e-03   3.1072262e-05  -1.2045847e-04  -1.4436664e-04   4.0230033e-04  -2.3992443e-04  -7.9749334e-05  -7.1504758e-05  -1.6680581e-04  -3.1666721e-05  -3.1499301e-04  -4.9651600e-05  -7.0737900e-05  -1.0479705e-04  -1.1120593e-05  -5.3377252e-06  -2.0331834e-05  -3.5090097e-05   2.6581759e-05  -6.9403725e-05  -7.7782463e-06  -3.6337457e-05  -2.9062082e-05  -8.2101721e-05  -8.0457465e-05  -7.4868106e-05  -1.4382904e-04  -2.8388607e-04  -8.6788439e-05  -2.3717685e-04  -1.2570261e-04  -6.4990823e-05  -1.4667933e-04   1.3189467e-05  -5.3930819e-05  -6.9144364e-05  -1.2552987e-04  -3.3013314e-05  -1.1206995e-04  -1.0408114e-04  -4.3321624e-05  -7.8433071e-06  -1.8463465e-04  -5.4577826e-05   1.9534214e-04  -4.0361053e-05   4.0399297e-04  -6.3370110e-06   1.3612014e-04   8.0001312e-05  -5.8675553e-05  -1.1359119e-04   2.3161863e-04   8.6548174e-05   9.6006542e-05   7.6472717e-05   1.2712321e-04  -1.2879313e-04  -8.1177953e-05   1.4312559e-04   5.1869406e-05   1.1142446e-04   1.1704681e-04  -7.6943702e-06   2.4659127e-05   3.0931898e-04   5.0232414e-05   3.9021915e-04   3.2807106e-04   1.1611631e-04   1.9557633e-04   7.0888963e-05   4.9979003e-05  -1.4748846e-05  -1.4325232e-04   7.2048584e-05   3.8313235e-04   1.2553533e-04   7.8468897e-05  -8.4802775e-05  -1.8917108e-04  -1.2768651e-04   1.4349663e-04   5.1997945e-05   7.9993318e-05  -7.7737040e-05   1.3086048e-04  -5.9012753e-05   9.1744669e-05   6.0591703e-05   5.4334351e-05  -2.7425044e-05  -7.8092311e-05  -6.0823670e-05  -1.1582089e-04  -4.6842798e-05   7.1818363e-06   4.7799245e-05  -4.9176379e-05  -4.9102459e-05  -1.0966937e-04  -1.3178002e-04  -1.3442543e-04   9.4880374e-05  -7.8148199e-05   6.0385344e-05  -2.6617463e-05  -5.2413456e-05  -4.4861349e-05  -2.7386161e-05   5.6591692e-05   5.2397180e-05   3.6754733e-05  -1.8952112e-04  -2.8488248e-05  -2.1495033e-05  -1.4798118e-05  -3.9152158e-05   1.8699268e-05  -4.4616029e-05  -1.0770908e-04  -2.2066507e-05  -1.4225862e-05  -1.4278465e-04  -7.1704973e-05  -6.3947030e-05  -1.4126681e-05  -9.4046017e-05  -4.9413618e-07   4.5378744e-07  -4.4828101e-05  -1.2360298e-05   1.0044054e-04   4.0141511e-05  -3.4514680e-05   1.2325165e-05  -3.0343909e-05   4.2645316e-05   1.7915552e-05   3.9708773e-07   1.0671639e-05  -5.9291724e-05  -1.1810778e-04  -6.3311105e-05   5.7294948e-06   2.8321994e-05   3.9286072e-05   9.5808730e-06   4.8677174e-06  -4.4515072e-05  -5.6958685e-05  -1.2993717e-05   6.2708518e-05   2.4585819e-06  -5.8936844e-05  -1.3253432e-05   1.7914468e-05   6.6900074e-05  -2.2476866e-04  -2.8552036e-04  -7.9785094e-05  -1.3551412e-04  -1.4111506e-04  -2.2045146e-04   8.2168100e-05   1.1747606e-04  -6.9732090e-05  -1.0974688e-04  -2.7396255e-04  -2.2048688e-04  -2.9241703e-04  -1.0608888e-04   6.8262978e-06  -1.4877824e-05  -1.1434365e-04  -2.1482963e-04  -2.3097867e-04  -2.2184347e-04  -3.3363348e-04  -3.0856929e-04  -3.2476686e-04  -3.3492655e-04  -1.8819614e-04  -2.2837261e-04  -2.8146620e-04  -1.7815013e-04  -3.2535435e-05  -3.9645991e-05  -1.3274822e-04  -3.0512622e-04  -1.2196266e-04  -1.3100017e-04  -1.3134816e-04  -1.4670302e-04  -3.3798583e-04  -2.5659680e-04  -1.1557080e-04  -1.0272778e-04  -2.0053460e-05  -1.1194314e-04  -9.7361927e-05  -4.1907711e-05  -1.2847149e-05  -1.1010866e-04   1.7120064e-05  -4.1818042e-05  -6.7837526e-05  -5.7273777e-05   1.7655202e-04   1.9815409e-04  -9.2157584e-05  -6.4166172e-05  -9.0582389e-05  -4.2477659e-05  -1.3699542e-05  -4.8664002e-05  -1.0029891e-05  -1.0360895e-04  -8.7530732e-05  -6.3980951e-05  -3.5763547e-05  -6.1929541e-05  -5.2261119e-05  -6.9397195e-05  -3.5073015e-05  -1.0154617e-04  -4.2387718e-05  -2.5633989e-05   1.7333566e-05  -8.1646507e-05  -1.3263927e-04  -1.2308550e-04  -1.4317050e-04  -2.6471438e-05  -1.8215429e-05   6.6009672e-05   1.7980862e-04  -2.5439589e-06   2.4448707e-04   2.9206758e-05   6.7413908e-04   4.9751324e-04   1.4971871e-04  -3.5331185e-06   3.0459578e-05   4.5177514e-05   1.7291472e-04   5.7324824e-04   3.9288572e-04   3.2197235e-05   1.2088245e-04   2.7829838e-04   9.5496449e-05   5.2148513e-05   1.5384789e-04   2.8633417e-04   8.0217887e-05   1.9672715e-04   3.1114198e-04   1.6832391e-04   3.2853539e-04   5.1597542e-06   1.8626808e-04   4.1961072e-04   7.0194415e-04  -7.4708232e-05   4.6000676e-04   1.1792034e-04   7.8846425e-05   5.4527388e-04   6.0917521e-04   4.2811518e-04   3.9880302e-05   1.3081398e-04  -1.7764346e-05   2.2470783e-04  -5.9436487e-05  -4.0194847e-05  -1.5015254e-04  -6.9147682e-05   8.8221401e-05   4.7704436e-05  -3.1592270e-05  -5.1216622e-05   6.3624854e-06  -1.2632715e-04   3.7514703e-05   1.1388859e-04   6.2153581e-05  -4.6335979e-05   5.9401412e-06   2.0372338e-05   1.5522761e-05   7.8506061e-06   7.3215601e-05   1.0853619e-04  -8.5119835e-05  -8.2375027e-05  -1.8680709e-04   2.6994884e-05   3.5373885e-05   4.0166626e-05  -4.4859377e-05  -4.8569038e-05  -1.9514317e-04  -1.2676402e-04  -2.8571983e-05   2.5143871e-05  -2.6598829e-05  -1.3124906e-04
