   3.5712494e-05  -4.7133931e-06   2.6683955e-05   3.7579310e-05   3.6610892e-05   1.3501962e-05  -9.1674661e-06   4.1405273e-06  -2.8551927e-05  -1.0310032e-06   3.7252104e-05  -1.3942592e-05  -3.0372256e-05  -1.0971955e-05   1.7441466e-05  -5.1679785e-06  -1.2919787e-05  -7.1717647e-07  -2.3367778e-05  -4.0611472e-05  -2.7719397e-05   2.8748519e-05   5.2672807e-06   3.9802052e-05  -3.6941187e-05   1.0028598e-05   8.3724272e-06   2.5120793e-06  -5.3173500e-05  -6.2950784e-08  -2.3617869e-06  -2.5454044e-05  -2.4813630e-05  -6.2487722e-05  -5.9774556e-05  -2.6454786e-06  -2.0610027e-05  -5.5602894e-08  -8.5111665e-05  -1.2418686e-04  -8.3028272e-05  -2.8705966e-05  -4.6117539e-05  -8.0700333e-05  -8.1639821e-05  -1.2210563e-04  -6.1062401e-05  -4.8427406e-05  -6.0030492e-06  -6.7426239e-05  -2.7001852e-05  -1.6777797e-05  -5.3509439e-05  -4.6517952e-05  -5.8947202e-05  -4.9767035e-05  -1.1429167e-04  -1.2864660e-04  -8.3655986e-05  -6.4825717e-05  -7.1432080e-05  -9.7749363e-05  -1.0892023e-04  -1.2867822e-04  -1.1005838e-04  -9.5261419e-05  -9.7600251e-05  -1.0121691e-04  -7.8838309e-05  -8.3248952e-05  -6.9030838e-05  -5.2168618e-05  -8.1298711e-05  -5.9496485e-05  -7.0920534e-05  -5.8788638e-05  -3.4569967e-04  -3.6224499e-04  -1.7056745e-04  -3.1750293e-04  -2.2980564e-04  -1.4883987e-04  -5.1792258e-04  -2.4970493e-04  -3.6739021e-04  -2.8652914e-04  -1.0617659e-05  -1.3226775e-04  -1.2758613e-04  -2.4755374e-04  -4.0524559e-05  -2.6078847e-04  -2.4291439e-04  -2.1472219e-04  -3.1910761e-04  -4.0181785e-04  -3.4859488e-04  -3.3172304e-04  -2.0506949e-04  -4.8125355e-04  -2.8857283e-04  -5.1494397e-04  -2.7757310e-04  -3.1175908e-04  -1.9953929e-04  -4.1924324e-05  -4.3582906e-04  -4.0087382e-04  -4.6776797e-04  -2.7922141e-04  -2.1217033e-04  -2.2587509e-04  -1.6813840e-04  -7.5477449e-05  -2.9346847e-05  -7.3599433e-05  -2.1791500e-05  -2.7031990e-05  -2.5563003e-05  -2.4578002e-05  -1.5042560e-05  -1.8233219e-05  -3.8375445e-05  -3.7091092e-05  -3.6924581e-05  -3.8691771e-05   3.9333554e-05   3.3997172e-06  -7.0226246e-06  -3.4929832e-05  -4.1136603e-05  -3.5063931e-05  -3.7514246e-05  -5.9479643e-05  -3.7256460e-05  -3.3228231e-05  -2.3255639e-05  -3.7212539e-05  -4.9763191e-05  -2.9900102e-05  -1.5551042e-05  -2.3792638e-05  -3.0814808e-05  -1.9903966e-05  -2.3573245e-05  -2.9855080e-05  -2.6739116e-05  -1.5886016e-05  -1.6794009e-05  -2.4594027e-05  -1.1202775e-05  -1.0267442e-05  -6.8075708e-05  -2.7518727e-05  -2.6910276e-05  -6.6864026e-05  -3.6984376e-05   2.1573904e-05   1.4673762e-05   1.4737094e-05   2.2921095e-05   8.3043465e-06   4.9350132e-05   3.8511643e-05   2.6880433e-05   1.3133775e-05   2.2006407e-05   2.8804581e-05   1.1303438e-05  -3.1774949e-06   5.8297038e-07   1.8314528e-05   2.9107193e-05  -1.7605938e-05   3.1875429e-05  -4.4347245e-05  -1.5696473e-05   2.5573769e-05   1.7269740e-05  -1.1154790e-05  -6.9130303e-06  -6.0512704e-06   1.5540771e-05   1.4672858e-05   3.8962737e-05   3.5557365e-05   1.1969809e-05   4.5881025e-05  -2.4497606e-05  -1.1168018e-05  -3.3586176e-05  -3.6566649e-05  -4.4702753e-06  -5.7847812e-06  -1.0967710e-05   2.6744286e-07   2.6153090e-08  -1.4396123e-05  -1.0233181e-05  -5.1284042e-07   4.1981317e-06  -1.5395825e-06   1.9499491e-05   9.6504392e-06  -5.0363464e-06  -2.3331706e-05  -2.4181398e-05  -2.8750690e-05  -1.7718055e-05  -2.8515790e-05  -6.4532751e-06  -1.2340220e-05   9.0796418e-06  -3.1193380e-06  -4.7289155e-05   1.2673519e-05   3.6422754e-05  -1.6052067e-05  -2.5694994e-05  -7.0561103e-06   5.8260883e-06  -9.1087385e-06  -5.6712394e-06   2.0466383e-05  -3.7839461e-07  -6.4560870e-06  -4.3456646e-05  -2.3112347e-05  -9.7337276e-05   6.2029479e-06  -2.7318361e-05  -1.1992555e-04  -2.9644386e-06   6.5410747e-05   5.2913706e-05   6.8810152e-05   3.8993499e-05  -1.5910240e-06   1.1194807e-04   8.1503594e-05  -2.9478205e-05   4.6052213e-05   4.1504535e-05   2.0914049e-05   2.4453630e-05   1.2918274e-05   5.4295032e-05   4.6360920e-05  -1.8954102e-05   6.0061678e-05   5.2638168e-05   1.6003639e-06   1.0357105e-05   3.1311841e-06   2.4391248e-05   3.6332014e-05   5.6987754e-05   8.6243633e-05   1.8373567e-04   4.9004964e-05   4.4721658e-05  -4.8390083e-05   6.6082199e-05   8.8687115e-05   6.3576622e-05   3.8680507e-05  -1.0365747e-04  -6.1393490e-05   1.8658383e-05   1.2316448e-05  -4.4979891e-05  -1.8944821e-05   7.9416225e-05   3.2873049e-05   5.8044220e-05   2.9327789e-05  -4.4694405e-05  -1.6150724e-05   7.5196678e-05   2.1062182e-05   2.0733250e-05   2.6769181e-05   8.7363497e-06  -8.2002586e-05  -7.5972063e-05  -6.1161231e-05  -4.0012377e-05   6.2197108e-07  -3.9105802e-05  -1.4146968e-05  -3.0457160e-05  -9.8465694e-06  -2.9312285e-05   1.7098532e-05   2.6660809e-05  -1.7462000e-05   1.5679715e-04  -5.5431783e-05  -3.7530432e-05   3.0162040e-05   4.9698325e-05   1.7369477e-05   6.1772328e-06   1.6360769e-05   4.9930183e-05  -1.1580166e-05   7.4459268e-06   5.2932186e-05   3.7862983e-05  -2.0291491e-06   1.1469180e-05   1.0286768e-07   8.9559991e-06   1.7219003e-05   1.1633507e-05   5.5402597e-07   2.5299252e-05  -2.3429259e-05  -1.4396622e-05   5.7361595e-06  -9.8416033e-06   3.0220966e-06  -2.0696191e-05  -1.6025058e-05  -2.4633800e-05   1.1934906e-05   1.1381580e-05  -6.7910135e-06  -1.3609816e-05   2.5675727e-05   1.0748634e-05   5.6387609e-06  -3.7690546e-05   4.7443368e-05   2.7300413e-06  -1.8496464e-05   8.5582716e-06  -4.3248226e-05  -3.0051273e-05   3.8129380e-05  -2.9400219e-05  -3.2120216e-07  -1.5347884e-04  -1.1197644e-04  -3.0715223e-04  -1.4180054e-04  -1.4172767e-04  -6.7994705e-05  -4.4057471e-04  -1.3476718e-04  -1.5342637e-04  -7.2542389e-05   6.1614282e-05  -2.5360336e-05  -1.8268532e-04   1.1909098e-04   1.3967868e-06  -1.1284464e-04  -1.4113989e-04   3.3335498e-05  -1.3669756e-05  -1.9255928e-04  -1.4681685e-04  -1.8689242e-04  -5.8889061e-05  -1.8000883e-04  -1.4534239e-04  -2.3292639e-05  -3.0966925e-05  -7.0290393e-05  -8.1220555e-05  -2.4936464e-05  -3.1747026e-04  -2.1981738e-05  -1.3837982e-05   6.8721660e-05  -1.2919823e-05  -2.6482603e-05  -2.2720604e-04  -1.6148026e-04
   3.3582456e-05  -1.5671588e-05   2.7698613e-05   3.9640032e-05   3.7349202e-05   1.1705574e-05  -1.1199042e-05   3.8842946e-06  -3.2125006e-05  -3.1063380e-06   3.5278120e-05  -1.9509008e-05  -3.1545027e-05  -1.1457215e-05   1.8652297e-05  -8.8969847e-06  -2.0364690e-05  -7.8309118e-06  -3.2865894e-05  -5.3963988e-05  -3.6944859e-05   2.8186630e-05   1.9268531e-06   3.9330278e-05  -4.8121921e-05   7.9327413e-06   5.5132401e-06  -1.3377182e-07  -6.1859058e-05  -1.6173221e-06  -2.1243670e-06  -3.4083186e-05  -3.4004787e-05  -6.8493546e-05  -6.6904197e-05  -4.1150711e-06  -2.7922459e-05  -1.9428347e-06  -9.7583963e-05  -1.4130006e-04  -9.1283001e-05  -3.2886264e-05  -5.3023515e-05  -9.5659545e-05  -8.8560667e-05  -1.3865214e-04  -7.3135942e-05  -5.6338604e-05  -1.5819356e-05  -8.3309569e-05  -2.4781633e-05  -8.9950160e-06  -5.3749533e-05  -5.4685488e-05  -7.5196264e-05  -6.0772778e-05  -1.3572164e-04  -1.5226589e-04  -1.0008187e-04  -7.3662682e-05  -8.3180105e-05  -1.1391958e-04  -1.2473995e-04  -1.4513948e-04  -1.2435667e-04  -1.0854664e-04  -1.0826345e-04  -1.1361585e-04  -8.5444740e-05  -9.6540760e-05  -7.8949068e-05  -5.7414979e-05  -8.8569173e-05  -5.7464925e-05  -7.6588134e-05  -6.6815762e-05  -4.0558727e-04  -4.3392666e-04  -1.8884834e-04  -3.2753005e-04  -2.5911801e-04  -1.7621097e-04  -5.4714376e-04  -2.7580129e-04  -4.0862408e-04  -3.1890668e-04  -5.1079376e-05  -1.7190714e-04  -1.1698756e-04  -2.5180249e-04  -4.7357076e-05  -2.9676620e-04  -2.9760604e-04  -2.8832846e-04  -3.9640340e-04  -5.0631185e-04  -4.3326240e-04  -3.7278941e-04  -2.4694116e-04  -5.3907049e-04  -3.2925016e-04  -5.9243149e-04  -3.3522697e-04  -3.6094415e-04  -2.1328409e-04  -4.2117195e-05  -4.5024599e-04  -4.6975620e-04  -5.4555840e-04  -3.1301405e-04  -2.3576959e-04  -2.5358498e-04  -1.6555036e-04  -8.5148441e-05  -3.1374540e-05  -7.8463079e-05  -2.3301514e-05  -2.9773088e-05  -2.8114044e-05  -2.8054448e-05  -1.2934035e-05  -1.5646870e-05  -4.0526186e-05  -4.1782117e-05  -4.4321682e-05  -4.3278329e-05   4.6962636e-05   6.6116856e-06  -5.0813682e-06  -3.7015649e-05  -4.4646356e-05  -3.7602938e-05  -4.1076071e-05  -6.4991572e-05  -4.0176321e-05  -3.7376665e-05  -2.5479709e-05  -4.3713173e-05  -4.9647175e-05  -3.2406055e-05  -1.9450558e-05  -2.6061900e-05  -2.8268567e-05  -1.9745023e-05  -2.5841454e-05  -3.0826580e-05  -2.4406671e-05  -1.4620290e-05  -1.3276809e-05  -2.2890936e-05  -1.0194617e-05  -1.0939347e-05  -7.4569787e-05  -2.8255303e-05  -3.1548580e-05  -7.5452038e-05  -4.2473334e-05   2.5150149e-05   1.8206458e-05   1.6380985e-05   2.4850478e-05   1.0173882e-05   5.3987417e-05   4.4975165e-05   2.7094302e-05   1.4933871e-05   2.5457791e-05   3.1826744e-05   1.4842547e-05   8.3897547e-07   5.7971631e-06   2.5043637e-05   3.5125169e-05  -2.1878765e-05   3.5122967e-05  -5.2396901e-05  -1.5042558e-05   2.5431054e-05   1.7230105e-05  -1.5425157e-05  -5.5779516e-06  -1.1474070e-05   6.7774671e-06   1.8347920e-05   4.4684177e-05   4.2341322e-05   1.5234353e-05   4.8185969e-05  -2.7259835e-05  -1.4783886e-05  -3.7196179e-05  -3.9065675e-05  -6.7685852e-06  -8.8314160e-06  -1.3110572e-05  -9.8314224e-07  -3.5759263e-06  -1.9263274e-05  -1.1656829e-05  -7.0257547e-07   7.2965474e-07  -2.0612350e-06   1.9921459e-05   9.3462633e-06  -9.0837121e-06  -2.7279901e-05  -2.8218539e-05  -3.0411111e-05  -1.7991098e-05  -2.9468027e-05  -5.2523798e-06  -1.5543321e-05   9.6813107e-06  -8.6679587e-06  -5.0168055e-05   1.2587261e-05   3.8067379e-05  -1.7941983e-05  -2.2929684e-05  -1.1747026e-05  -3.8169806e-08  -8.5592020e-06  -7.3616944e-06   2.5956897e-05   3.5551950e-06  -1.2324194e-05  -4.5898834e-05  -2.6352261e-05  -1.0065130e-04   1.3796399e-05  -2.6307571e-05  -1.2826817e-04  -2.0707763e-06   7.7778653e-05   6.4375216e-05   8.0767781e-05   4.7582970e-05  -2.5250968e-07   1.2041292e-04   9.1863248e-05  -3.7199786e-05   5.2076284e-05   4.5742562e-05   2.0349667e-05   2.7993922e-05   1.7984756e-05   7.0277487e-05   6.8746102e-05  -1.2844568e-05   6.8752795e-05   5.8154158e-05   1.1644445e-05   2.4088467e-05   7.0842119e-06   2.8743595e-05   4.0921339e-05   6.8558419e-05   9.3154629e-05   2.0340607e-04   6.6745888e-05   6.8481537e-05  -5.5075880e-05   7.8798434e-05   9.8740277e-05   7.7973617e-05   4.9941230e-05  -1.1920742e-04  -6.5222156e-05   1.9319339e-05   6.2911692e-06  -5.1706089e-05  -2.1399059e-05   8.4133282e-05   3.6998379e-05   6.2812061e-05   2.9802943e-05  -5.0864278e-05  -1.6422359e-05   7.5725710e-05   2.2365360e-05   2.2372719e-05   2.7606118e-05   1.2229709e-05  -8.7694136e-05  -8.0869171e-05  -5.9181197e-05  -4.0832275e-05  -2.0403967e-06  -4.0385008e-05  -1.9055796e-05  -2.2056910e-05  -9.1072180e-06  -2.8417381e-05   2.2375762e-05   3.4770783e-05  -1.4129044e-05   1.7203859e-04  -5.6127307e-05  -3.6292467e-05   4.3441427e-05   5.7860707e-05   2.3690260e-05   1.0446356e-05   1.8594172e-05   5.1513435e-05  -1.8480911e-05   3.0573116e-06   4.9134291e-05   3.8127464e-05  -5.7361649e-06   8.2130946e-06  -3.4165403e-06   7.5596078e-06   1.4820015e-05   9.6956903e-06  -1.7625553e-06   2.6466462e-05  -2.9844829e-05  -1.8344297e-05   2.6522000e-06  -1.6766457e-05   1.9443017e-06  -2.6399057e-05  -1.9683679e-05  -2.8389780e-05   8.4417667e-06   1.1553890e-05  -1.8289386e-05  -1.9510690e-05   2.3801676e-05   8.0260611e-06   1.3883799e-06  -3.9841490e-05   4.5761581e-05  -9.1262908e-06  -2.1438018e-05   1.3357436e-05  -4.5998449e-05  -3.1383918e-05   3.6128236e-05  -4.1548812e-05  -3.1572562e-06  -1.6571667e-04  -1.1883401e-04  -3.4771516e-04  -1.6982152e-04  -1.5675273e-04  -7.3419593e-05  -5.2857673e-04  -1.5313373e-04  -1.7185299e-04  -7.8148339e-05   7.9228084e-05  -2.4105262e-05  -2.4969410e-04   1.2520438e-04  -1.4073527e-06  -1.1968542e-04  -1.5818364e-04   5.4450888e-05  -1.7718266e-06  -2.0225734e-04  -1.5457776e-04  -2.1141070e-04  -5.6103667e-05  -2.1024175e-04  -1.5920036e-04  -1.0807098e-05  -2.4407750e-05  -7.4407935e-05  -8.1633004e-05  -2.0034048e-05  -3.7298911e-04  -1.3979572e-05  -7.7631114e-06   8.9698996e-05  -1.2055941e-05  -2.4961782e-05  -2.5709773e-04  -1.8248895e-04
   2.9736392e-05  -2.8270239e-05   2.7851554e-05   4.0692749e-05   3.6865154e-05   9.1055906e-06  -1.3512768e-05   2.8790582e-06  -3.5221443e-05  -5.4682307e-06   3.1714534e-05  -2.5466176e-05  -3.1783385e-05  -1.1892906e-05   1.8935789e-05  -1.3167988e-05  -2.8671764e-05  -1.6341035e-05  -4.3169739e-05  -6.8087116e-05  -4.6715856e-05   2.6553685e-05  -2.1376826e-06   3.7495968e-05  -6.0090246e-05   5.1344766e-06   2.1096771e-06  -3.3143238e-06  -7.0233099e-05  -3.3362274e-06  -1.3778754e-06  -4.3350014e-05  -4.3892697e-05  -7.3546265e-05  -7.3124918e-05  -5.6452878e-06  -3.5763074e-05  -4.1453893e-06  -1.0869296e-04  -1.5593631e-04  -9.7326499e-05  -3.6194287e-05  -5.9101405e-05  -1.1022189e-04  -9.3991461e-05  -1.5296545e-04  -8.3680852e-05  -6.3352718e-05  -2.7087243e-05  -9.9066089e-05  -2.0698858e-05   9.3002503e-07  -5.2745612e-05  -6.2022924e-05  -9.1832853e-05  -7.1458213e-05  -1.5636667e-04  -1.7435802e-04  -1.1564910e-04  -8.1302843e-05  -9.4322047e-05  -1.2906411e-04  -1.3856578e-04  -1.5935502e-04  -1.3701161e-04  -1.1998948e-04  -1.1571271e-04  -1.2302953e-04  -9.0289345e-05  -1.0857360e-04  -8.7418767e-05  -6.0898321e-05  -9.3076824e-05  -5.3929794e-05  -8.0669159e-05  -7.3757735e-05  -4.6018954e-04  -5.0480385e-04  -2.0498240e-04  -3.3133115e-04  -2.8392383e-04  -2.0267438e-04  -5.6978934e-04  -2.9919498e-04  -4.4485559e-04  -3.4680454e-04  -9.8506629e-05  -2.1430736e-04  -1.0755070e-04  -2.5214668e-04  -5.6730634e-05  -3.3095131e-04  -3.5474638e-04  -3.6757842e-04  -4.7639909e-04  -6.1505631e-04  -5.2168935e-04  -4.0986633e-04  -2.8856732e-04  -5.9264395e-04  -3.6835647e-04  -6.6394901e-04  -3.9488295e-04  -4.0680979e-04  -2.2509653e-04  -4.2898022e-05  -4.5766939e-04  -5.3638391e-04  -6.2109933e-04  -3.4390916e-04  -2.5885423e-04  -2.7922393e-04  -1.5745693e-04  -9.4195287e-05  -3.2229762e-05  -8.0838604e-05  -2.4118963e-05  -3.1545620e-05  -2.9925558e-05  -3.0887279e-05  -9.4427424e-06  -1.1646617e-05  -4.1016842e-05  -4.5759243e-05  -5.1670944e-05  -4.6867509e-05   5.4775554e-05   1.0512978e-05  -2.4241063e-06  -3.7938172e-05  -4.6892702e-05  -3.9054337e-05  -4.3483582e-05  -6.8738611e-05  -4.1881030e-05  -4.0591498e-05  -2.7027113e-05  -4.9381158e-05  -4.7204788e-05  -3.3809425e-05  -2.3207272e-05  -2.7450739e-05  -2.3874918e-05  -1.8726700e-05  -2.6971582e-05  -3.0589263e-05  -2.0463255e-05  -1.2379577e-05  -8.4035040e-06  -1.9991809e-05  -8.0172695e-06  -1.0957000e-05  -7.9278521e-05  -2.7893533e-05  -3.5969692e-05  -8.2952029e-05  -4.7357672e-05   2.8537207e-05   2.1643812e-05   1.7593350e-05   2.6613669e-05   1.2002296e-05   5.7276042e-05   5.1133154e-05   2.6349001e-05   1.6559645e-05   2.8511735e-05   3.4484555e-05   1.8347020e-05   5.7375306e-06   1.1983503e-05   3.2392393e-05   4.1154091e-05  -2.6202484e-05   3.8070570e-05  -6.0374415e-05  -1.3617970e-05   2.4509114e-05   1.6431482e-05  -1.9812879e-05  -3.0792599e-06  -1.7312467e-05  -3.8592008e-06   2.2342118e-05   4.9768421e-05   4.9469623e-05   1.9177595e-05   4.9544435e-05  -2.9095177e-05  -1.8516521e-05  -3.9793747e-05  -4.0079810e-05  -9.2037834e-06  -1.2070344e-05  -1.4952287e-05  -2.1208033e-06  -7.6779254e-06  -2.4368758e-05  -1.2606602e-05  -7.4232146e-07  -3.2638582e-06  -2.1645379e-06   1.9736764e-05   8.5689694e-06  -1.3558238e-05  -3.0849770e-05  -3.1998218e-05  -3.1154244e-05  -1.7194845e-05  -2.8715695e-05  -3.1155932e-06  -1.8340833e-05   1.0662741e-05  -1.4455340e-05  -5.1312847e-05   1.2746136e-05   3.8753254e-05  -1.9141843e-05  -1.8603615e-05  -1.6584458e-05  -6.2871428e-06  -7.0555104e-06  -8.6792893e-06   3.2075102e-05   8.2718477e-06  -1.8356504e-05  -4.6063175e-05  -2.8535040e-05  -1.0208808e-04   2.2564830e-05  -2.4067929e-05  -1.3362413e-04  -1.1327162e-06   8.9642451e-05   7.6090832e-05   9.2831304e-05   5.6154616e-05   1.0384780e-06   1.2489686e-04   1.0045703e-04  -4.5108359e-05   5.7765676e-05   4.9393114e-05   1.8963743e-05   3.1029146e-05   2.2279099e-05   8.6574236e-05   9.4818856e-05  -3.8972939e-06   7.7155129e-05   6.3793389e-05   2.3840580e-05   3.9922333e-05   1.1826186e-05   3.2822541e-05   4.4876579e-05   8.1098037e-05   9.8915557e-05   2.2392765e-04   8.5645319e-05   9.3459070e-05  -6.0751236e-05   9.2150719e-05   1.0818104e-04   9.3592682e-05   6.2530339e-05  -1.3349508e-04  -6.7433202e-05   1.9869068e-05  -5.8997402e-07  -5.8128041e-05  -2.4010227e-05   8.7660909e-05   4.1178836e-05   6.6595670e-05   2.9473679e-05  -5.6686963e-05  -1.6320845e-05   7.4404273e-05   2.3184817e-05   2.3766629e-05   2.7911894e-05   1.6399527e-05  -9.1560135e-05  -8.4149958e-05  -5.5309429e-05  -4.0536293e-05  -5.3162783e-06  -4.0833936e-05  -2.3905545e-05  -1.0777311e-05  -8.0728858e-06  -2.6248816e-05   2.7938063e-05   4.3550100e-05  -9.5222569e-06   1.8460654e-04  -5.5056739e-05  -3.3123154e-05   5.7804679e-05   6.6118536e-05   3.0311145e-05   1.5216193e-05   2.0850617e-05   5.2508934e-05  -2.5363605e-05  -1.4425769e-06   4.3928471e-05   3.7621336e-05  -9.6256144e-06   5.4168920e-06  -6.8485204e-06   6.0783966e-06   1.1688632e-05   6.9107011e-06  -4.4131866e-06   2.7298633e-05  -3.5702407e-05  -2.1909162e-05  -9.1082708e-07  -2.3689892e-05   7.6754105e-07  -3.2081941e-05  -2.2824823e-05  -3.1566065e-05   4.9249390e-06   1.1716005e-05  -2.9852966e-05  -2.4992704e-05   2.0899366e-05   4.7454046e-06  -3.0672505e-06  -4.0751406e-05   4.2400643e-05  -2.0820947e-05  -2.3945164e-05   1.8427321e-05  -4.7453676e-05  -3.1550989e-05   3.3034347e-05  -5.2792927e-05  -5.7510233e-06  -1.7433868e-04  -1.2279200e-04  -3.8424815e-04  -1.9832910e-04  -1.6911956e-04  -7.7390611e-05  -6.1595999e-04  -1.6958209e-04  -1.8798016e-04  -8.3245410e-05   9.7277105e-05  -2.1767482e-05  -3.2278982e-04   1.2742967e-04  -4.9754059e-06  -1.2379511e-04  -1.7354878e-04   7.6764478e-05   1.2114488e-05  -2.0717299e-04  -1.5945648e-04  -2.3320915e-04  -5.1320521e-05  -2.3903065e-04  -1.6998783e-04   4.1668709e-06  -1.5401740e-05  -7.6837624e-05  -7.7896105e-05  -1.3910286e-05  -4.2615641e-04  -3.6024306e-06   5.6376393e-07   1.1060438e-04  -1.0738170e-05  -2.3097475e-05  -2.8431952e-04  -2.0137784e-04
   2.4249400e-05  -4.2160689e-05   2.7097146e-05   4.0672190e-05   3.5167126e-05   5.8008048e-06  -1.6092332e-05   1.0122009e-06  -3.7782856e-05  -8.0548349e-06   2.6753371e-05  -3.1624085e-05  -3.1081105e-05  -1.2303221e-05   1.8192251e-05  -1.7899500e-05  -3.7643538e-05  -2.6056877e-05  -5.4015151e-05  -8.2606892e-05  -5.6780078e-05   2.3897267e-05  -6.7875541e-06   3.4339888e-05  -7.2617914e-05   1.7050166e-06  -1.6538401e-06  -6.9549500e-06  -7.8154762e-05  -5.1802762e-06  -8.4559952e-08  -5.3022810e-05  -5.4169191e-05  -7.7624174e-05  -7.8343718e-05  -7.1600090e-06  -4.3870847e-05  -6.6058814e-06  -1.1811226e-04  -1.6760763e-04  -1.0097218e-04  -3.8545592e-05  -6.4153737e-05  -1.2397968e-04  -9.8455160e-05  -1.6482618e-04  -9.2028819e-05  -6.9140487e-05  -3.9281669e-05  -1.1410213e-04  -1.5187229e-05   1.2169928e-05  -5.1300845e-05  -6.8235714e-05  -1.0821832e-04  -8.1363587e-05  -1.7553488e-04  -1.9410055e-04  -1.2977604e-04  -8.7595035e-05  -1.0459166e-04  -1.4280714e-04  -1.5004547e-04  -1.7096311e-04  -1.4761717e-04  -1.2920076e-04  -1.1948462e-04  -1.2911174e-04  -9.3786607e-05  -1.1888368e-04  -9.4050942e-05  -6.2261391e-05  -9.4562947e-05  -5.0050693e-05  -8.3450330e-05  -7.9475586e-05  -5.0787169e-04  -5.7315826e-04  -2.1883221e-04  -3.2992395e-04  -3.0354407e-04  -2.2763235e-04  -5.8680867e-04  -3.1966039e-04  -4.7574066e-04  -3.6966860e-04  -1.5171870e-04  -2.5851772e-04  -1.0097452e-04  -2.4969445e-04  -6.8910238e-05  -3.6306796e-04  -4.1329124e-04  -4.5065574e-04  -5.5734692e-04  -7.2526355e-04  -6.1168751e-04  -4.4221852e-04  -3.2877520e-04  -6.4139569e-04  -4.0556780e-04  -7.2739073e-04  -4.5533276e-04  -4.4797465e-04  -2.3581857e-04  -4.4861119e-05  -4.5939385e-04  -5.9925384e-04  -6.9267814e-04  -3.7162826e-04  -2.8170426e-04  -3.0243931e-04  -1.4494507e-04  -1.0259208e-04  -3.1764310e-05  -8.0480978e-05  -2.4176826e-05  -3.2188765e-05  -3.0881424e-05  -3.2868296e-05  -4.5829660e-06  -6.3286987e-06  -3.9672186e-05  -4.8842778e-05  -5.8610666e-05  -4.9200790e-05   6.2630509e-05   1.5013787e-05   8.5230636e-07  -3.7568432e-05  -4.7615821e-05  -3.9254155e-05  -4.4471881e-05  -7.0401040e-05  -4.2175869e-05  -4.2646436e-05  -2.7762149e-05  -5.3803461e-05  -4.2414801e-05  -3.3919071e-05  -2.6518139e-05  -2.7805377e-05  -1.7762125e-05  -1.6820314e-05  -2.6712452e-05  -2.9018275e-05  -1.4965174e-05  -9.1667463e-06  -2.3212914e-06  -1.6002680e-05  -4.5890644e-06  -1.0220345e-05  -8.2034641e-05  -2.6401533e-05  -4.0037953e-05  -8.9183610e-05  -5.1485855e-05   3.1665442e-05   2.4794591e-05   1.8322126e-05   2.8270655e-05   1.3704572e-05   5.9120321e-05   5.6846492e-05   2.4732078e-05   1.7968547e-05   3.1031730e-05   3.6785741e-05   2.1767865e-05   1.1429795e-05   1.9027671e-05   4.0260297e-05   4.7119676e-05  -3.0467827e-05   4.0765695e-05  -6.8077423e-05  -1.1452993e-05   2.2918349e-05   1.4901605e-05  -2.4133106e-05   6.4712829e-07  -2.3195217e-05  -1.5897918e-05   2.6626506e-05   5.4083450e-05   5.6820576e-05   2.3797846e-05   5.0085704e-05  -2.9837745e-05  -2.2210410e-05  -4.1162337e-05  -3.9339328e-05  -1.1595317e-05  -1.5272877e-05  -1.6301504e-05  -2.9255852e-06  -1.1960120e-05  -2.9404807e-05  -1.2886895e-05  -4.7967564e-07  -7.3964905e-06  -1.5975528e-06   1.9069232e-05   7.4297483e-06  -1.8182837e-05  -3.3780138e-05  -3.5299208e-05  -3.0860452e-05  -1.5147973e-05  -2.5953361e-05   1.4405232e-07  -2.0414514e-05   1.2252552e-05  -1.9988862e-05  -5.0551444e-05   1.3479225e-05   3.8689035e-05  -1.9436764e-05  -1.2842106e-05  -2.1178713e-05  -1.2276070e-05  -4.4367166e-06  -9.3453004e-06   3.8768821e-05   1.3651718e-05  -2.4092203e-05  -4.3692733e-05  -2.9375655e-05  -1.0186371e-04   3.2504676e-05  -2.0474523e-05  -1.3544440e-04  -1.0132014e-07   1.0049597e-04   8.8055431e-05   1.0488517e-04   6.4619611e-05   2.2233532e-06   1.2499081e-04   1.0688699e-04  -5.2769564e-05   6.3091327e-05   5.2446862e-05   1.6908809e-05   3.3771323e-05   2.5420421e-05   1.0258233e-04   1.2398002e-04   7.8050944e-06   8.5366003e-05   6.9791747e-05   3.8469911e-05   5.7573995e-05   1.7308417e-05   3.6555806e-05   4.8218630e-05   9.4660626e-05   1.0374898e-04   2.4640995e-04   1.0513308e-04   1.1845811e-04  -6.4859278e-05   1.0621947e-04   1.1694531e-04   1.1032183e-04   7.6246479e-05  -1.4600166e-04  -6.7883476e-05   2.0475802e-05  -7.7555276e-06  -6.4086007e-05  -2.6754564e-05   9.0289468e-05   4.5467211e-05   6.9466193e-05   2.8526628e-05  -6.2007063e-05  -1.5856707e-05   7.1581258e-05   2.3582610e-05   2.4975607e-05   2.7829341e-05   2.1309627e-05  -9.3556682e-05  -8.5773066e-05  -4.9851300e-05  -3.9177341e-05  -9.0555076e-06  -4.0543426e-05  -2.8306765e-05   3.0948787e-06  -6.7594750e-06  -2.2833204e-05   3.3672775e-05   5.2832238e-05  -3.8782382e-06   1.9436897e-04  -5.2256078e-05  -2.7990713e-05   7.2795521e-05   7.4475226e-05   3.6952592e-05   2.0301749e-05   2.3077812e-05   5.3172232e-05  -3.1844915e-05  -5.6838640e-06   3.7844939e-05   3.6547128e-05  -1.3472512e-05   3.5885063e-06  -9.8222561e-06   4.6291410e-06   8.0287734e-06   3.4068073e-06  -7.2953981e-06   2.7894948e-05  -4.0593602e-05  -2.4799250e-05  -4.7881623e-06  -3.0193285e-05  -4.2943674e-07  -3.7524782e-05  -2.5280435e-05  -3.4052940e-05   1.7636432e-06   1.1933577e-05  -4.0631934e-05  -2.9694166e-05   1.7134217e-05   1.2089572e-06  -7.3999936e-06  -4.0490301e-05   3.7830631e-05  -3.1268218e-05  -2.5901277e-05   2.3558099e-05  -4.7693544e-05  -3.0632761e-05   2.9332800e-05  -6.2330604e-05  -7.8479268e-06  -1.7932200e-04  -1.2387715e-04  -4.1605584e-04  -2.2683600e-04  -1.7865396e-04  -7.9790367e-05  -7.0038699e-04  -1.8373858e-04  -2.0149122e-04  -8.8098348e-05   1.1513450e-04  -1.8390729e-05  -3.9984166e-04   1.2566127e-04  -9.2496127e-06  -1.2523143e-04  -1.8687556e-04   9.9357594e-05   2.7531929e-05  -2.0719611e-04  -1.6142178e-04  -2.5184405e-04  -4.4888713e-05  -2.6568836e-04  -1.7754533e-04   2.0975861e-05  -4.3144770e-06  -7.7739558e-05  -6.9994739e-05  -7.2026020e-06  -4.7567186e-04   8.9702141e-06   1.1052522e-05   1.3064221e-04  -9.0219844e-06  -2.1348222e-05  -3.0842373e-04  -2.1778044e-04
   1.7241598e-05  -5.6969676e-05   2.5409910e-05   3.9530606e-05   3.2298961e-05   1.9163043e-06  -1.8894353e-05  -1.7655024e-06  -3.9782637e-05  -1.0805797e-05   2.0633029e-05  -3.7790139e-05  -2.9471455e-05  -1.2690809e-05   1.6396736e-05  -2.3000047e-05  -4.7073479e-05  -3.6742839e-05  -6.5128896e-05  -9.7152331e-05  -6.6886814e-05   2.0286410e-05  -1.1868172e-05   2.9915445e-05  -8.5459574e-05  -2.2709438e-06  -5.5966554e-06  -1.0973192e-05  -8.5504081e-05  -7.1207761e-06   1.7472671e-06  -6.2856564e-05  -6.4510886e-05  -8.0731449e-05  -8.2515573e-05  -8.5837898e-06  -5.1962497e-05  -9.2586205e-06  -1.2563577e-04  -1.7602092e-04  -1.0218928e-04  -3.9979105e-05  -6.8069070e-05  -1.3658213e-04  -1.0269034e-04  -1.7425250e-04  -9.7647713e-05  -7.3447645e-05  -5.1817455e-05  -1.2787836e-04  -8.9047583e-06   2.3638706e-05  -5.0394635e-05  -7.3113313e-05  -1.2372376e-04  -9.0065365e-05  -1.9260770e-04  -2.1081392e-04  -1.4197384e-04  -9.2508987e-05  -1.1379130e-04  -1.5489354e-04  -1.5901220e-04  -1.7976782e-04  -1.5586415e-04  -1.3594281e-04  -1.1932648e-04  -1.3179524e-04  -9.6562039e-05  -1.2711078e-04  -9.8562788e-05  -6.1248420e-05  -9.2942845e-05  -4.7185089e-05  -8.5369337e-05  -8.3928565e-05  -5.4756201e-04  -6.3748997e-04  -2.3037380e-04  -3.2446541e-04  -3.1761647e-04  -2.5063598e-04  -5.9905196e-04  -3.3705120e-04  -5.0122712e-04  -3.8716850e-04  -2.0940050e-04  -3.0355693e-04  -9.8433753e-05  -2.4546979e-04  -8.3940446e-05  -3.9299266e-04  -4.7217682e-04  -5.3575703e-04  -6.3758910e-04  -8.3419226e-04  -7.0099732e-04  -4.6929376e-04  -3.6648142e-04  -6.8488502e-04  -4.4068894e-04  -7.8097903e-04  -5.1526587e-04  -4.8325900e-04  -2.4636995e-04  -4.8539698e-05  -4.5667200e-04  -6.5711723e-04  -7.5876983e-04  -3.9605964e-04  -3.0456203e-04  -3.2292957e-04  -1.2934344e-04  -1.1034911e-04  -2.9876924e-05  -7.7248442e-05  -2.3435050e-05  -3.1599292e-05  -3.0899449e-05  -3.3815983e-05   1.5626186e-06   1.4172154e-07  -3.6403990e-05  -5.0881613e-05  -6.4741548e-05  -5.0053344e-05   7.0378678e-05   1.9985873e-05   4.6152443e-06  -3.5818730e-05  -4.6588465e-05  -3.8056611e-05  -4.3802053e-05  -6.9714627e-05  -4.0899256e-05  -4.3363385e-05  -2.7564184e-05  -5.6604989e-05  -3.5355686e-05  -3.2588747e-05  -2.9064848e-05  -2.7019767e-05  -1.0141537e-05  -1.4029139e-05  -2.4884443e-05  -2.6015686e-05  -8.0128479e-06  -5.0101356e-06   4.7690879e-06  -1.1075397e-05   1.0766571e-07  -8.6713982e-06  -8.2773532e-05  -2.3800672e-05  -4.3625842e-05  -9.4031220e-05  -5.4750516e-05   3.4484049e-05   2.7475323e-05   1.8546279e-05   2.9877635e-05   1.5198183e-05   5.9505445e-05   6.1997516e-05   2.2378080e-05   1.9123480e-05   3.2908877e-05   3.8759119e-05   2.5094595e-05   1.7804656e-05   2.6792712e-05   4.8531470e-05   5.2968889e-05  -3.4580489e-05   4.3259452e-05  -7.5299426e-05  -8.6111958e-06   2.0782446e-05   1.2704597e-05  -2.8217700e-05   5.5914548e-06  -2.8738976e-05  -2.8817001e-05   3.1152891e-05   5.7537678e-05   6.4236985e-05   2.9040011e-05   4.9969455e-05  -2.9390583e-05  -2.5717666e-05  -4.1132465e-05  -3.6634161e-05  -1.3750343e-05  -1.8192400e-05  -1.6974624e-05  -3.1733491e-06  -1.6072756e-05  -3.4046115e-05  -1.2322232e-05   2.5055377e-07  -1.1228285e-05  -1.1323837e-07   1.8075787e-05   6.0713614e-06  -2.2664460e-05  -3.5813762e-05  -3.7891768e-05  -2.9430067e-05  -1.1704820e-05  -2.0946107e-05   4.6895037e-06  -2.1466666e-05   1.4666427e-05  -2.4776751e-05  -4.7794717e-05   1.5102331e-05   3.8157245e-05  -1.8643421e-05  -5.8352125e-06  -2.5137391e-05  -1.7363939e-05  -5.8095696e-07  -9.0922946e-06   4.5948362e-05   1.9544960e-05  -2.9093581e-05  -3.8678129e-05  -2.8665301e-05  -1.0022018e-04   4.3611556e-05  -1.5426216e-05  -1.3319591e-04   1.0997367e-06   1.0982657e-04   1.0029969e-04   1.1679271e-04   7.2903172e-05   3.2385821e-06   1.2046802e-04   1.1079453e-04  -5.9755946e-05   6.8029753e-05   5.4914823e-05   1.4362282e-05   3.6497756e-05   2.7103888e-05   1.1766711e-04   1.5531000e-04   2.1971486e-05   9.3513242e-05   7.6337722e-05   5.5815852e-05   7.6729482e-05   2.3417543e-05   3.9873002e-05   5.1026364e-05   1.0922325e-04   1.0793268e-04   2.7183657e-04   1.2457729e-04   1.4226669e-04  -6.6906984e-05   1.2105564e-04   1.2493652e-04   1.2800424e-04   9.0777207e-05  -1.5626875e-04  -6.6476230e-05   2.1314794e-05  -1.4590106e-05  -6.9427962e-05  -2.9572399e-05   9.2333574e-05   4.9894031e-05   7.1532575e-05   2.7194378e-05  -6.6669876e-05  -1.5035026e-05   6.7646592e-05   2.3640948e-05   2.6065631e-05   2.7519823e-05   2.7020319e-05  -9.3697734e-05  -8.5730099e-05  -4.3127038e-05  -3.6828554e-05  -1.3066836e-05  -3.9615911e-05  -3.1859140e-05   1.9180869e-05  -5.1792861e-06  -1.8236457e-05   3.9480208e-05   6.2434921e-05   2.5060099e-06   2.0130579e-04  -4.7801274e-05  -2.0943689e-05   8.7940971e-05   8.2942093e-05   4.3331583e-05   2.5504953e-05   2.5210288e-05   5.3749523e-05  -3.7600854e-05  -9.3496591e-06   3.1413478e-05   3.5111301e-05  -1.7072480e-05   3.1374306e-06  -1.2003661e-05   3.2825057e-06   4.0496847e-06  -6.5469775e-07  -1.0318656e-05   2.8347515e-05  -4.4187408e-05  -2.6780083e-05  -8.8333412e-06  -3.5904439e-05  -1.5700209e-06  -4.2529397e-05  -2.6951490e-05  -3.5803666e-05  -7.2634142e-07   1.2245204e-05  -4.9853679e-05  -3.3342456e-05   1.2669971e-05  -2.2535428e-06  -1.1324883e-05  -3.9222488e-05   3.2613922e-05  -3.9515265e-05  -2.7239756e-05   2.8541139e-05  -4.6888454e-05  -2.8808152e-05   2.5536879e-05  -6.9531327e-05  -9.2521801e-06  -1.8087741e-04  -1.2229007e-04  -4.4271472e-04  -2.5488743e-04  -1.8536439e-04  -8.0584185e-05  -7.7975625e-04  -1.9536385e-04  -2.1219061e-04  -9.2990332e-05   1.3214714e-04  -1.4076157e-05  -4.7858947e-04   1.1996912e-04  -1.4145412e-05  -1.2417865e-04  -1.9787109e-04   1.2134280e-04   4.4000039e-05  -2.0236291e-04  -1.6047967e-04  -2.6707340e-04  -3.7229649e-05  -2.8967756e-04  -1.8189493e-04   3.8863546e-05   8.3273356e-06  -7.7384926e-05  -5.8155022e-05  -6.2115638e-07  -5.2051817e-04   2.3483273e-05   2.3476382e-05   1.4915063e-04  -6.9644198e-06  -2.0188336e-05  -3.2915871e-04  -2.3147494e-04
   8.8759762e-06  -7.2311493e-05   2.2785636e-05   3.7238199e-05   2.8339378e-05  -2.4030731e-06  -2.1847446e-05  -5.4305283e-06  -4.1224120e-05  -1.3664943e-05   1.3624277e-05  -4.3777334e-05  -2.7027246e-05  -1.3035602e-05   1.3604744e-05  -2.8367767e-05  -5.6749899e-05  -4.8124022e-05  -7.6235176e-05  -1.1136152e-04  -7.6792848e-05   1.5810012e-05  -1.7215983e-05   2.4287822e-05  -9.8355251e-05  -6.6987080e-06  -9.5559353e-06  -1.5282562e-05  -9.2179015e-05  -9.1397633e-06   4.0654670e-06  -7.2600712e-05  -7.4593216e-05  -8.2889659e-05  -8.5636762e-05  -9.8452497e-06  -5.9744040e-05  -1.2028148e-05  -1.3119070e-04  -1.8110100e-04  -1.0110350e-04  -4.0667125e-05  -7.0829267e-05  -1.4775242e-04  -1.0757491e-04  -1.8149798e-04  -1.0017782e-04  -7.6115026e-05  -6.4089983e-05  -1.3994227e-04  -2.7034963e-06   3.4065651e-05  -5.1099347e-05  -7.6534374e-05  -1.3776822e-04  -9.7202850e-05  -2.0707530e-04  -2.2399340e-04  -1.5187675e-04  -9.6140667e-05  -1.2179345e-04  -1.6520626e-04  -1.6548959e-04  -1.8575019e-04  -1.6155832e-04  -1.4013465e-04  -1.1521108e-04  -1.3129142e-04  -9.9388065e-05  -1.3301579e-04  -1.0080271e-04  -5.7734142e-05  -8.8312977e-05  -4.6774651e-05  -8.6972184e-05  -8.7169782e-05  -5.7880433e-04  -6.9657414e-04  -2.3970197e-04  -3.1622711e-04  -3.2610947e-04  -2.7138175e-04  -6.0719207e-04  -3.5129346e-04  -5.2153629e-04  -3.9920011e-04  -2.7015947e-04  -3.4844422e-04  -1.0050501e-04  -2.4035095e-04  -1.0163595e-04  -4.2073979e-04  -5.3036735e-04  -6.2115256e-04  -7.1562165e-04  -9.3926723e-04  -7.8739033e-04  -4.9073400e-04  -4.0073276e-04  -7.2285036e-04  -4.7366074e-04  -8.2332895e-04  -5.7332213e-04  -5.1176542e-04  -2.5768630e-04  -5.4369297e-05  -4.5063959e-04  -7.0900270e-04  -8.1810238e-04  -4.1725337e-04  -3.2760391e-04  -3.4047534e-04  -1.1212231e-04  -1.1749831e-04  -2.6518623e-05  -7.1109517e-05  -2.1882651e-05  -2.9737544e-05  -2.9936213e-05  -3.3583175e-05   8.8409104e-06   7.5391821e-06  -3.1222254e-05  -5.1765130e-05  -6.9649568e-05  -4.9247216e-05   7.7873059e-05   2.5269036e-05   8.7045236e-06  -3.2651464e-05  -4.3634102e-05  -3.5337935e-05  -4.1273030e-05  -6.6486888e-05  -3.7932754e-05  -4.2623429e-05  -2.6334699e-05  -5.7472531e-05  -2.6202980e-05  -2.9725661e-05  -3.0535955e-05  -2.5040896e-05  -1.2959510e-06  -1.0396623e-05  -2.1399889e-05  -2.1517469e-05   2.5582764e-07   3.6006943e-08   1.2627999e-05  -5.4037623e-06   6.0227465e-06  -6.2977100e-06  -8.1535651e-05  -2.0167696e-05  -4.6622291e-05  -9.7442788e-05  -5.7089697e-05   3.6959038e-05   2.9525026e-05   1.8279305e-05   3.1483313e-05   1.6408302e-05   5.8495898e-05   6.6493543e-05   1.9457458e-05   1.9997588e-05   3.4067957e-05   4.0451576e-05   2.8353948e-05   2.4727897e-05   3.5114205e-05   5.7073062e-05   5.8658733e-05  -3.8464149e-05   4.5600655e-05  -8.1840054e-05  -5.1831865e-06   1.8227157e-05   9.9360013e-06  -3.1922261e-05   1.1667850e-05  -3.3577250e-05  -4.2085650e-05   3.5846122e-05   6.0077098e-05   7.1531741e-05   3.4800603e-05   4.9366924e-05  -2.7732392e-05  -2.8908820e-05  -3.9593985e-05  -3.1834286e-05  -1.5480076e-05  -2.0586703e-05  -1.6808647e-05  -2.6551292e-06  -1.9669610e-05  -3.7979063e-05  -1.0772638e-05   1.6081271e-06  -1.4299870e-05   2.5039726e-06   1.6930512e-05   4.6495987e-06  -2.6718278e-05  -3.6718398e-05  -3.9556106e-05  -2.6791804e-05  -6.7703119e-06  -1.3556282e-05   1.0642583e-05  -2.1243423e-05   1.8085310e-05  -2.8369800e-05  -4.3048081e-05   1.7890463e-05   3.7491199e-05  -1.6626955e-05   2.1709459e-06  -2.8099728e-05  -2.0967616e-05   4.5814868e-06  -7.6876734e-06   5.3481455e-05   2.5776449e-05  -3.2980578e-05  -3.1073107e-05  -2.6290614e-05  -9.7433260e-05   5.5834656e-05  -8.8658926e-06  -1.2644653e-04   2.5515377e-06   1.1713946e-04   1.1285646e-04   1.2838357e-04   8.0935334e-05   4.0196125e-06   1.1129979e-04   1.1188226e-04  -6.5684105e-05   7.2551498e-05   5.6793315e-05   1.1489326e-05   3.9489528e-05   2.7107875e-05   1.3118738e-04   1.8758752e-04   3.8067534e-05   1.0171971e-04   8.3536860e-05   7.6082567e-05   9.7021807e-05   2.9970184e-05   4.2695259e-05   5.3417680e-05   1.2465208e-04   1.1174912e-04   3.0092981e-04   1.4328972e-04   1.6370897e-04  -6.6516450e-05   1.3663806e-04   1.3200264e-04   1.4639623e-04   1.0568023e-04  -1.6392032e-04  -6.3167395e-05   2.2554526e-05  -2.0476012e-05  -7.4017955e-05  -3.2371277e-05   9.4097389e-05   5.4460135e-05   7.2930495e-05   2.5735006e-05  -7.0536157e-05  -1.3863748e-05   6.3002914e-05   2.3452691e-05   2.7098251e-05   2.7152513e-05   3.3581300e-05  -9.2050675e-05  -8.4048963e-05  -3.5450183e-05  -3.3575052e-05  -1.7132291e-05  -3.8162650e-05  -3.4177319e-05   3.7022534e-05  -3.3450227e-06  -1.2568302e-05   4.5270397e-05   7.2161016e-05   9.2880847e-06   2.0550560e-04  -4.1816662e-05  -1.2118358e-05   1.0276298e-04   9.1526632e-05   4.9176483e-05   3.0618601e-05   2.7172822e-05   5.4462273e-05  -4.2391255e-05  -1.2196240e-05   2.5129929e-05   3.3509293e-05  -2.0259665e-05   4.3404284e-06  -1.3126515e-05   2.0595695e-06  -5.0809907e-08  -5.0874503e-06  -1.3412478e-05   2.8731471e-05  -4.6262006e-05  -2.7703257e-05  -1.2930220e-05  -4.0528537e-05  -2.5831648e-06  -4.6933183e-05  -2.7816950e-05  -3.6842378e-05  -2.3177709e-06   1.2653907e-05  -5.6873964e-05  -3.5774183e-05   7.6561722e-06  -5.3223016e-06  -1.4621096e-05  -3.7199828e-05   2.7357629e-05  -4.4830918e-05  -2.7942751e-05   3.3172877e-05  -4.5283527e-05  -2.6338128e-05   2.2133738e-05  -7.3980214e-05  -9.8401804e-06  -1.7942689e-04  -1.1840207e-04  -4.6407522e-04  -2.8206908e-04  -1.8943982e-04  -7.9824313e-05  -8.5229053e-04  -2.0437191e-04  -2.2004021e-04  -9.8203558e-05   1.4765273e-04  -8.9891637e-06  -5.5678498e-04   1.1059198e-04  -1.9554722e-05  -1.2093468e-04  -2.0633145e-04   1.4190131e-04   6.1022157e-05  -1.9286827e-04  -1.5669182e-04  -2.7885741e-04  -2.8815288e-05  -3.1063095e-04  -1.8322600e-04   5.7013538e-05   2.1854485e-05  -7.6128479e-05  -4.2831291e-05   5.1084056e-06  -5.5998765e-04   3.9598602e-05   3.7468278e-05   1.6563734e-04  -4.6283631e-06  -2.0070411e-05  -3.4646719e-04  -2.4238992e-04
  -6.4395026e-07  -8.7799701e-05   1.9244209e-05   3.3786715e-05   2.3399240e-05  -7.0003808e-06  -2.4853449e-05  -9.8808811e-06  -4.2140517e-05  -1.6580008e-05   6.0112473e-06  -4.9412365e-05  -2.3858500e-05  -1.3296870e-05   9.9492869e-06  -3.3894550e-05  -6.6461550e-05  -5.9895292e-05  -8.7062692e-05  -1.2489182e-04  -8.6267597e-05   1.0573646e-05  -2.2665618e-05   1.7536562e-05  -1.1103145e-04  -1.1476014e-05  -1.3396201e-05  -1.9791544e-05  -9.8090532e-05  -1.1225324e-05   6.7772506e-06  -8.2006523e-05  -8.4104816e-05  -8.4130013e-05  -8.7737416e-05  -1.0881512e-05  -6.6920799e-05  -1.4831548e-05  -1.3484484e-04  -1.8298513e-04  -9.7989035e-05  -4.0905257e-05  -7.2513838e-05  -1.5730010e-04  -1.1405052e-04  -1.8701643e-04  -9.9458743e-05  -7.7091060e-05  -7.5512722e-05  -1.4994722e-04   2.4344490e-06   4.2083580e-05  -5.4481072e-05  -7.8472539e-05  -1.4985304e-04  -1.0249590e-04  -2.1855803e-04  -2.3332794e-04  -1.5925688e-04  -9.8697816e-05  -1.2855152e-04  -1.7376695e-04  -1.6967522e-04  -1.8906202e-04  -1.6464045e-04  -1.4186227e-04  -1.0733593e-04  -1.2807576e-04  -1.0310846e-04  -1.3649751e-04  -1.0076382e-04  -5.1744793e-05  -8.0942819e-05  -5.0192854e-05  -8.8854573e-05  -8.9336286e-05  -6.0177546e-04  -7.4948841e-04  -2.4702411e-04  -3.0652925e-04  -3.2931927e-04  -2.8972789e-04  -6.1170502e-04  -3.6239628e-04  -5.3715335e-04  -4.0589568e-04  -3.3256636e-04  -3.9222836e-04  -1.0714313e-04  -2.3501564e-04  -1.2159489e-04  -4.4645465e-04  -5.8689071e-04  -7.0525248e-04  -7.9014232e-04  -1.0381644e-03  -8.6874819e-04  -5.0641258e-04  -4.3075187e-04  -7.5521067e-04  -5.0453216e-04  -8.5350706e-04  -6.2811309e-04  -5.3289943e-04  -2.7065219e-04  -6.2673857e-05  -4.4226287e-04  -7.5424920e-04  -8.6968854e-04  -4.3539070e-04  -3.5090566e-04  -3.5494015e-04  -9.4803133e-05  -1.2410363e-04  -2.1696013e-05  -6.2150810e-05  -1.9537884e-05  -2.6631237e-05  -2.7988626e-05  -3.2068032e-05   1.7038370e-05   1.5591950e-05  -2.4237857e-05  -5.1431965e-05  -7.2932546e-05  -4.6664521e-05   8.4971092e-05   3.0681391e-05   1.2946058e-05  -2.8086461e-05  -3.8642004e-05  -3.1007888e-05  -3.6736009e-05  -6.0606753e-05  -3.3209265e-05  -4.0373666e-05  -2.4001527e-05  -5.6173811e-05  -1.5220758e-05  -2.5296663e-05  -3.0651441e-05  -2.1876601e-05   8.4362328e-06  -6.0077810e-06  -1.6275936e-05  -1.5498005e-05   9.6745240e-06   5.8932787e-06   2.0986315e-05   7.8813368e-07   1.3042563e-05  -3.1346455e-06  -7.8459934e-05  -1.5639677e-05  -4.8932284e-05  -9.9424459e-05  -5.8487378e-05   3.9075283e-05   3.0819173e-05   1.7571132e-05   3.3122865e-05   1.7274365e-05   5.6228044e-05   7.0265775e-05   1.6169722e-05   2.0572584e-05   3.4475639e-05   4.1924706e-05   3.1596168e-05   3.2044382e-05   4.3801954e-05   6.5723784e-05   6.4151282e-05  -4.2061471e-05   4.7826755e-05  -8.7508664e-05  -1.2854660e-06   1.5370249e-05   6.7200907e-06  -3.5132489e-05   1.8717817e-05  -3.7388469e-05  -5.5191833e-05   4.0603667e-05   6.1682263e-05   7.8498008e-05   4.0929510e-05   4.8445251e-05  -2.4921504e-05  -3.1676166e-05  -3.6506064e-05  -2.4909844e-05  -1.6614896e-05  -2.2234218e-05  -1.5674813e-05  -1.1945368e-06  -2.2436968e-05  -4.0926354e-05  -8.1510562e-06   3.7343128e-06  -1.6166390e-05   6.4190735e-06   1.5805395e-05   3.3168876e-06  -3.0090862e-05  -3.6303815e-05  -4.0097191e-05  -2.2912509e-05  -3.1442602e-07  -3.7615422e-06   1.8064210e-05  -1.9557853e-05   2.2638844e-05  -3.0396627e-05  -3.6413553e-05   2.2047414e-05   3.7041827e-05  -1.3316094e-05   1.0885178e-05  -2.9766694e-05  -2.2613230e-05   1.1053713e-05  -4.9562222e-06   6.1192291e-05   3.2152408e-05  -3.5461398e-05  -2.1097882e-05  -2.2243646e-05  -9.3827034e-05   6.9054489e-05  -8.2363113e-07  -1.1493963e-04   4.3205121e-06   1.2196517e-04   1.2569574e-04   1.3944295e-04   8.8592610e-05   4.4738942e-06   9.7634344e-05   1.0991525e-04  -7.0271429e-05   7.6603814e-05   5.8074582e-05   8.4244894e-06   4.2972514e-05   2.5300542e-05   1.4250810e-04   2.1932114e-04   5.5323675e-05   1.1006072e-04   9.1384534e-05   9.9304251e-05   1.1803469e-04   3.6689676e-05   4.4909711e-05   5.5530705e-05   1.4067650e-04   1.1546437e-04   3.3397180e-04   1.6054346e-04   1.8169686e-04  -6.3495436e-05   1.5283590e-04   1.3793304e-04   1.6518258e-04   1.2040646e-04  -1.6868708e-04  -5.7981727e-05   2.4347253e-05  -2.4842050e-05  -7.7741341e-05  -3.5035882e-05   9.5851693e-05   5.9128472e-05   7.3807439e-05   2.4412747e-05  -7.3489664e-05  -1.2353801e-05   5.8028854e-05   2.3108625e-05   2.8118633e-05   2.6890740e-05   4.1022569e-05  -8.8737380e-05  -8.0796996e-05  -2.7112938e-05  -2.9513009e-05  -2.1021490e-05  -3.6299283e-05  -3.4920297e-05   5.6115403e-05  -1.2748454e-06  -5.9866382e-06   5.0964045e-05   8.1808565e-05   1.6115091e-05   2.0715280e-04  -3.4468560e-05  -1.7428426e-06   1.1679502e-04   1.0021735e-04   5.4243359e-05   3.5447461e-05   2.8887708e-05   5.5492334e-05  -4.6080036e-05  -1.4075193e-05   1.9422364e-05   3.1907371e-05  -2.2919444e-05   7.3093302e-06  -1.3017016e-05   9.2454287e-07  -4.1032416e-06  -9.7061727e-06  -1.6540892e-05   2.9094035e-05  -4.6722875e-05  -2.7522502e-05  -1.7009079e-05  -4.3864986e-05  -3.4117258e-06  -5.0624069e-05  -2.7943352e-05  -3.7258969e-05  -2.8920066e-06   1.3126610e-05  -6.1220064e-05  -3.6947360e-05   2.2124971e-06  -7.7118025e-06  -1.7153754e-05  -3.4745325e-05   2.2656836e-05  -4.6747868e-05  -2.8050835e-05   3.7260873e-05  -4.3178739e-05  -2.3552284e-05   1.9542937e-05  -7.5497992e-05  -9.5721110e-06  -1.7556716e-04  -1.1273193e-04  -4.8025324e-04  -3.0800545e-04  -1.9122300e-04  -7.7659503e-05  -9.1659719e-04  -2.1081271e-04  -2.2512932e-04  -1.0399630e-04   1.6100080e-04  -3.3667952e-06  -6.3229313e-04   9.7920298e-05  -2.5355898e-05  -1.1589849e-04  -2.1215142e-04   1.6030989e-04   7.8087364e-05  -1.7907785e-04  -1.5018348e-04  -2.8734244e-04  -2.0155051e-05  -3.2833811e-04  -1.8187941e-04   7.4580465e-05   3.5492089e-05  -7.4384538e-05  -2.4672923e-05   9.3115153e-06  -5.9368511e-04   5.6889439e-05   5.2530820e-05   1.7978878e-04  -2.0771618e-06  -2.1383608e-05  -3.6047597e-04  -2.5059167e-04
  -1.1080300e-05  -1.0305647e-04   1.4831526e-05   2.9192298e-05   1.7616541e-05  -1.1716525e-05  -2.7792358e-05  -1.4942505e-05  -4.2585113e-05  -1.9504127e-05  -1.9245279e-06  -5.4542088e-05  -2.0106122e-05  -1.3416857e-05   5.6311496e-06  -3.9464612e-05  -7.6003128e-05  -7.1731184e-05  -9.7351582e-05  -1.3742466e-04  -9.5095893e-05   4.7001793e-06  -2.8057271e-05   9.7570745e-06  -1.2320688e-04  -1.6493493e-05  -1.7016867e-05  -2.4408855e-05  -1.0315914e-04  -1.3367301e-05   9.7579563e-06  -9.0833551e-05  -9.2760667e-05  -8.4485103e-05  -8.8872406e-05  -1.1642647e-05  -7.3213206e-05  -1.7579832e-05  -1.3679498e-04  -1.8200773e-04  -9.3250373e-05  -4.1094023e-05  -7.3293220e-05  -1.6512983e-04  -1.2301812e-04  -1.9142919e-04  -9.5538037e-05  -7.6438200e-05  -8.5556188e-05  -1.5767763e-04   5.4718165e-06   4.6346781e-05  -6.1496551e-05  -7.8992126e-05  -1.5958362e-04  -1.0576267e-04  -2.2682359e-04  -2.3871087e-04  -1.6402988e-04  -1.0048267e-04  -1.3409583e-04  -1.8072770e-04  -1.7191910e-04  -1.9001229e-04  -1.6519583e-04  -1.4136403e-04  -9.6113951e-05  -1.2284506e-04  -1.0854946e-04  -1.3760064e-04  -9.8587238e-05  -4.3468048e-05  -7.1259240e-05  -5.8600927e-05  -9.1588580e-05  -9.0630104e-05  -6.1727054e-04  -7.9565777e-04  -2.5265916e-04  -2.9669375e-04  -3.2785780e-04  -3.0568055e-04  -6.1283611e-04  -3.7044605e-04  -5.4876188e-04  -4.0761996e-04  -3.9520947e-04  -4.3400766e-04  -1.1767907e-04  -2.2989197e-04  -1.4322454e-04  -4.7037466e-04  -6.4085595e-04  -7.8665518e-04  -8.6006970e-04  -1.1289009e-03  -9.4315901e-04  -5.1642808e-04  -4.5595920e-04  -7.8206932e-04  -5.3344344e-04  -8.7104549e-04  -6.7829060e-04  -5.4639933e-04  -2.8603856e-04  -7.3633311e-05  -4.3229091e-04  -7.9249626e-04  -9.1285826e-04  -4.5073846e-04  -3.7442798e-04  -3.6627481e-04  -7.8846375e-05  -1.3023164e-04  -1.5471223e-05  -5.0573488e-05  -1.6445970e-05  -2.2374502e-05  -2.5094640e-05  -2.9220909e-05   2.5890564e-05   2.3996986e-05  -1.5661273e-05  -4.9870620e-05  -7.4227698e-05  -4.2255435e-05   9.1541830e-05   3.6029218e-05   1.7163637e-05  -2.2200543e-05  -3.1582050e-05  -2.5011554e-05  -3.0108409e-05  -5.2054642e-05  -2.6716244e-05  -3.6630523e-05  -2.0524744e-05  -5.2576770e-05  -2.7471291e-06  -1.9333511e-05  -2.9182975e-05  -1.7592423e-05   1.8683472e-05  -9.9051658e-07  -9.6367577e-06  -7.9776913e-06   2.0053562e-05   1.2459226e-05   2.9562532e-05   7.2562796e-06   2.0991699e-05   7.3862080e-07  -7.3777170e-05  -1.0398000e-05  -5.0482246e-05  -1.0003412e-04  -5.8971359e-05   4.0832845e-05   3.1285325e-05   1.6502945e-05   3.4814340e-05   1.7754740e-05   5.2899835e-05   7.3267525e-05   1.2730476e-05   2.0844122e-05   3.4144181e-05   4.3248976e-05   3.4891134e-05   3.9579446e-05   5.2644447e-05   7.4292243e-05   6.9403898e-05  -4.5331362e-05   4.9958236e-05  -9.2135208e-05   2.9498855e-06   1.2316085e-05   3.2012397e-06  -3.7769891e-05   2.6518703e-05  -3.9923494e-05  -6.7679975e-05   4.5291755e-05   6.2364710e-05   8.4922329e-05   4.7239371e-05   4.7352671e-05  -2.1092987e-05  -3.3944000e-05  -3.1901543e-05  -1.5940642e-05  -1.7019594e-05  -2.2953916e-05  -1.3488633e-05   1.3360527e-06  -2.4118840e-05  -4.2672546e-05  -4.4323512e-06   6.7328488e-06  -1.6436616e-05   1.1724980e-05   1.4853101e-05   2.2075257e-06  -3.2577179e-05  -3.4441559e-05  -3.9363308e-05  -1.7803980e-05   7.6165016e-06   8.3310151e-06   2.6942596e-05  -1.6306231e-05   2.8390438e-05  -3.0594825e-05  -2.8088028e-05   2.7686276e-05   3.7144006e-05  -8.7122263e-06   1.9982498e-05  -2.9928182e-05  -2.1977085e-05   1.8765906e-05  -7.9878751e-07   6.8862366e-05   3.8464026e-05  -3.6354690e-05  -9.1292416e-06  -1.6627279e-05  -8.9787015e-05   8.3033582e-05   8.5579304e-06  -9.8679176e-05   6.4279496e-06   1.2389606e-04   1.3870355e-04   1.4970007e-04   9.5707537e-05   4.4605355e-06   7.9794510e-05   1.0471003e-04  -7.3364984e-05   8.0100421e-05   5.8718126e-05   5.2393661e-06   4.7071119e-05   2.1646600e-05   1.5101306e-04   2.4881537e-04   7.2777882e-05   1.1852243e-04   9.9746384e-05   1.2527785e-04   1.3928156e-04   4.3214755e-05   4.6395869e-05   5.7492769e-05   1.5686903e-04   1.1927622e-04   3.7070811e-04   1.7559305e-04   1.9527939e-04  -5.7858374e-05   1.6939055e-04   1.4247161e-04   1.8395664e-04   1.3429309e-04  -1.7042191e-04  -5.1010913e-05   2.6815157e-05  -2.7195463e-05  -8.0510067e-05  -3.7436998e-05   9.7804169e-05   6.3826314e-05   7.4311580e-05   2.3477211e-05  -7.5452813e-05  -1.0528721e-05   5.3056440e-05   2.2683167e-05   2.9152451e-05   2.6878067e-05   4.9343576e-05  -8.3928243e-05  -7.6080480e-05  -1.8378456e-05  -2.4748730e-05  -2.4505054e-05  -3.4140450e-05  -3.3817272e-05   7.5931533e-05   1.0026730e-06   1.2983075e-06   5.6492367e-05   9.1174420e-05   2.2641513e-05   2.0651164e-04  -2.5969642e-05   9.8650972e-06   1.2959856e-04   1.0897781e-04   5.8325998e-05   3.9812732e-05   3.0281112e-05   5.6968495e-05  -4.8642892e-05  -1.4937664e-05   1.4626862e-05   3.0434009e-05  -2.4997815e-05   1.1977360e-05  -1.1615973e-05  -2.1231823e-07  -7.9763502e-06  -1.4340573e-05  -1.9704484e-05   2.9450956e-05  -4.5614678e-05  -2.6305621e-05  -2.1048913e-05  -4.5823916e-05  -4.0137174e-06  -5.3543036e-05  -2.7477625e-05  -3.7212557e-05  -2.4490840e-06   1.3593435e-05  -6.2615831e-05  -3.6944858e-05  -3.5797927e-06  -9.1978532e-06  -1.8877498e-05  -3.2230339e-05   1.9049065e-05  -4.5105030e-05  -2.7662377e-05   4.0625715e-05  -4.0902950e-05  -2.0821382e-05   1.8070581e-05  -7.4158063e-05  -8.4971608e-06  -1.7003247e-04  -1.0591117e-04  -4.9159351e-04  -3.3235104e-04  -1.9119320e-04  -7.4326101e-05  -9.7170491e-04  -2.1485628e-04  -2.2767011e-04  -1.1057654e-04   1.7157516e-04   2.4921032e-06  -7.0320435e-04   8.2479665e-05  -3.1410761e-05  -1.0953383e-04  -2.1533177e-04   1.7597195e-04   9.4692659e-05  -1.6151466e-04  -1.4115760e-04  -2.9284091e-04  -1.1769501e-05  -3.4273608e-04  -1.7831243e-04   9.0736099e-05   4.8395760e-05  -7.2584883e-05  -4.4768812e-06   1.1426156e-05  -6.2149963e-04   7.4864989e-05   6.8067930e-05   1.9148242e-04   6.3211539e-07  -2.4414423e-05  -3.7146706e-04  -2.5627406e-04
  -2.2166857e-05  -1.1772077e-04   9.6206557e-06   2.3500661e-05   1.1152763e-05  -1.6395998e-05  -3.0530878e-05  -2.0378215e-05  -4.2628757e-05  -2.2394048e-05  -9.9184083e-06  -5.9036800e-05  -1.5935079e-05  -1.3328228e-05   9.0172937e-07  -4.4960317e-05  -8.5177236e-05  -8.3298246e-05  -1.0685925e-04  -1.4867388e-04  -1.0308273e-04  -1.6741733e-06  -3.3241270e-05   1.0651802e-06  -1.3459729e-04  -2.1638276e-05  -2.0356392e-05  -2.9040948e-05  -1.0731024e-04  -1.5553636e-05   1.2862346e-05  -9.8857075e-05  -1.0031404e-04  -8.3984591e-05  -8.9110830e-05  -1.2094886e-05  -7.8365650e-05  -2.0180290e-05  -1.3735537e-04  -1.7867220e-04  -8.7395915e-05  -4.1711941e-05  -7.3419536e-05  -1.7123927e-04  -1.3524587e-04  -1.9545274e-04  -8.8674056e-05  -7.4327555e-05  -9.3776426e-05  -1.6305306e-04   5.4016290e-06   4.5659540e-05  -7.2882692e-05  -7.8236735e-05  -1.6669077e-04  -1.0692334e-04  -2.3179470e-04  -2.4023824e-04  -1.6625536e-04  -1.0186549e-04  -1.3852750e-04  -1.8635433e-04  -1.7268235e-04  -1.8904796e-04  -1.6345571e-04  -1.3901350e-04  -8.2142435e-05  -1.1645699e-04  -1.1643511e-04  -1.3651034e-04  -9.4554845e-05  -3.3251537e-05  -5.9815697e-05  -7.2803204e-05  -9.5655415e-05  -9.1297079e-05  -6.2664631e-04  -8.3484415e-04  -2.5701344e-04  -2.8798490e-04  -3.2260640e-04  -3.1936730e-04  -6.1060757e-04  -3.7559614e-04  -5.5720717e-04  -4.0493248e-04  -4.5672372e-04  -4.7296023e-04  -1.3090129e-04  -2.2515526e-04  -1.6576834e-04  -4.9280125e-04  -6.9149295e-04  -8.6417053e-04  -9.2455678e-04  -1.2098660e-03  -1.0089670e-03  -5.2110937e-04  -4.7599229e-04  -8.0371960e-04  -5.6059746e-04  -8.7596549e-04  -7.2256177e-04  -5.5234279e-04  -3.0443845e-04  -8.7283648e-05  -4.2125997e-04  -8.2367714e-04  -9.4726556e-04  -4.6360876e-04  -3.9800188e-04  -3.7451690e-04  -6.5571638e-05  -1.3596327e-04  -7.9595550e-06  -3.6684727e-05  -1.2675452e-05  -1.7119725e-05  -2.1331037e-05  -2.5046768e-05   3.5100146e-05   3.2440825e-05  -5.7913420e-06  -4.7125208e-05  -7.3239634e-05  -3.6045119e-05   9.7472256e-05   4.1118830e-05   2.1194660e-05  -1.5127795e-05  -2.2512041e-05  -1.7340109e-05  -2.1382198e-05  -4.0906819e-05  -1.8500665e-05  -3.1476898e-05  -1.5899307e-05  -4.6654225e-05   1.0822028e-05  -1.1929789e-05  -2.5973114e-05  -1.2308848e-05   2.9058962e-05   4.4908919e-06  -1.7073276e-06   9.7688716e-07   3.1189396e-05   1.9612139e-05   3.8077814e-05   1.3754432e-05   2.9647402e-05   5.2045455e-06  -6.7790760e-05  -4.6685674e-06  -5.1219700e-05  -9.9367664e-05  -5.8605464e-05   4.2245460e-05   3.0910798e-05   1.5185229e-05   3.6559405e-05   1.7828831e-05   4.8757949e-05   7.5475765e-05   9.3633281e-06   2.0820034e-05   3.3132043e-05   4.4501541e-05   3.8313965e-05   4.7141383e-05   6.1408866e-05   8.2559539e-05   7.4362374e-05  -4.8250240e-05   5.1995392e-05  -9.5574469e-05   7.3795270e-06   9.1499599e-06  -4.6643867e-07  -3.9793502e-05   3.4795088e-05  -4.1024027e-05  -7.9172953e-05   4.9752681e-05   6.2159601e-05   9.0596096e-05   5.3517720e-05   4.6206944e-05  -1.6451875e-05  -3.5670298e-05  -2.5887397e-05  -5.1192192e-06  -1.6605020e-05  -2.2618749e-05  -1.0218454e-05   5.0040784e-06  -2.4536560e-05  -4.3078442e-05   3.3636279e-07   1.0659208e-05  -1.4806042e-05   1.8427751e-05   1.4191638e-05   1.4250231e-06  -3.4032403e-05  -3.1076861e-05  -3.7259310e-05  -1.1527302e-05   1.6894177e-05   2.2480590e-05   3.7181379e-05  -1.1479572e-05   3.5326539e-05  -2.8833766e-05  -1.8354797e-05   3.4812679e-05   3.8086156e-05  -2.8951814e-06   2.9119682e-05  -2.8482581e-05  -1.8910867e-05   2.7570097e-05   4.7927438e-06   7.6237779e-05   4.4498445e-05  -3.5599825e-05   4.3179480e-06  -9.6494053e-06  -8.5743852e-05   9.7416637e-05   1.8995437e-05  -7.7969530e-05   8.8305872e-06   1.2258464e-04   1.5162560e-04   1.5882482e-04   1.0200552e-04   3.7777014e-06   5.8246995e-05   9.6147768e-05  -7.4978850e-05   8.2908155e-05   5.8657911e-05   1.9272629e-06   5.1761361e-05   1.6201200e-05   1.5612759e-04   2.7424874e-04   8.9299225e-05   1.2696968e-04   1.0835154e-04   1.5347509e-04   1.6020416e-04   4.9094747e-05   4.6982049e-05   5.9397527e-05   1.7266094e-04   1.2330134e-04   4.1025282e-04   1.8769140e-04   2.0368417e-04  -4.9853540e-05   1.8589807e-04   1.4531851e-04   2.0224563e-04   1.4660530e-04  -1.6910524e-04  -4.2423957e-05   3.0042132e-05  -2.7164776e-05  -8.2265753e-05  -3.9445181e-05   1.0008432e-04   6.8442516e-05   7.4574939e-05   2.3141503e-05  -7.6390072e-05  -8.4249298e-06   4.8349262e-05   2.2223070e-05   3.0196774e-05   2.7228214e-05   5.8508636e-05  -7.7836275e-05  -7.0047935e-05  -9.4676152e-06  -1.9394673e-05  -2.7371989e-05  -3.1798658e-05  -3.0684976e-05   9.5948717e-05   3.4415208e-06   9.0326841e-06   6.1797785e-05   1.0006567e-04   2.8555166e-05   2.0390452e-04  -1.6569790e-05   2.2305884e-05   1.4077228e-04   1.1773308e-04   6.1271236e-05   4.3570555e-05   3.1291984e-05   5.8960588e-05  -5.0170463e-05  -1.4843887e-05   1.0972914e-05   2.9169663e-05  -2.6504866e-05   1.8102966e-05  -8.9868277e-06  -1.4905585e-06  -1.1591755e-05  -1.8853595e-05  -2.2941305e-05   2.9783534e-05  -4.3118608e-05  -2.4232305e-05  -2.5081202e-05  -4.6431782e-05  -4.3692259e-06  -5.5689748e-05  -2.6640399e-05  -3.6916510e-05  -1.1071082e-06   1.3950134e-05  -6.0999981e-05  -3.5967362e-05  -9.6783012e-06  -9.6344106e-06  -1.9839470e-05  -3.0048531e-05   1.6967855e-05  -4.0054378e-05  -2.6924474e-05   4.3106870e-05  -3.8791682e-05  -1.8532096e-05   1.7888523e-05  -7.0265126e-05  -6.7453165e-06  -1.6362838e-04  -9.8647463e-05  -4.9862960e-04  -3.5479775e-04  -1.8991295e-04  -7.0147564e-05  -1.0170711e-03  -2.1677362e-04  -2.2798361e-04  -1.1808138e-04   1.7882789e-04   8.2331680e-06  -7.6790713e-04   6.4899158e-05  -3.7569062e-05  -1.0234691e-04  -2.1598179e-04   1.8841907e-04   1.1034787e-04  -1.4084334e-04  -1.2990615e-04  -2.9578458e-04  -4.1612791e-06  -3.5387850e-04  -1.7306227e-04   1.0470851e-04   5.9722756e-05  -7.1153368e-05   1.6850226e-05   1.1050731e-05  -6.4357334e-04   9.2980948e-05   8.3412307e-05   2.0076197e-04   3.4504762e-06  -2.9322457e-05  -3.7984977e-04  -2.5973329e-04
  -3.3615200e-05  -1.3145657e-04   3.7135492e-06   1.6788755e-05   4.1864743e-06  -2.0894781e-05  -3.2931043e-05  -2.5908129e-05  -4.2349697e-05  -2.5210454e-05  -1.7735613e-05  -6.2795301e-05  -1.1523730e-05  -1.2960358e-05  -3.9584505e-06  -5.0260496e-05  -9.3798923e-05  -9.4265060e-05  -1.1536494e-04  -1.5838887e-04  -1.1005557e-04  -8.4012870e-06  -3.8083926e-05  -8.3993429e-06  -1.4492373e-04  -2.6794153e-05  -2.3391411e-05  -3.3595960e-05  -1.1047315e-04  -1.7762496e-05   1.5933256e-05  -1.0587411e-04  -1.0656473e-04  -8.2650570e-05  -8.8528257e-05  -1.2222498e-05  -8.2159352e-05  -2.2540230e-05  -1.3692803e-04  -1.7360726e-04  -8.1000892e-05  -4.3275249e-05  -7.3202919e-05  -1.7571741e-04  -1.5128176e-04  -1.9984126e-04  -7.9314486e-05  -7.1032462e-05  -9.9846271e-05  -1.6612431e-04   1.3422749e-06   3.9102821e-05  -8.9069819e-05  -7.6414651e-05  -1.7104094e-04  -1.0600977e-04  -2.3354618e-04  -2.3819280e-04  -1.6612440e-04  -1.0324895e-04  -1.4200895e-04  -1.9099746e-04  -1.7249910e-04  -1.8671173e-04  -1.5978353e-04  -1.3528949e-04  -6.6168254e-05  -1.0985555e-04  -1.2729965e-04  -1.3353606e-04  -8.9069196e-05  -2.1590647e-05  -4.7264487e-05  -9.3137708e-05  -1.0138578e-04  -9.1600644e-05  -6.3173523e-04  -8.6715127e-04  -2.6055311e-04  -2.8157006e-04  -3.1467618e-04  -3.3102704e-04  -6.0483966e-04  -3.7804913e-04  -5.6341071e-04  -3.9856075e-04  -5.1584226e-04  -5.0835305e-04  -1.4512666e-04  -2.2071658e-04  -1.8836089e-04  -5.1405150e-04  -7.3815081e-04  -9.3684977e-04  -9.8299811e-04  -1.2798594e-03  -1.0648353e-03  -5.2099942e-04  -4.9071546e-04  -8.2062386e-04  -5.8622664e-04  -8.6874338e-04  -7.5976887e-04  -5.5111965e-04  -3.2622013e-04  -1.0350927e-04  -4.0947956e-04  -8.4798408e-04  -9.7287792e-04  -4.7429531e-04  -4.2132619e-04  -3.7979156e-04  -5.6070023e-05  -1.4138287e-04   6.7686027e-07  -2.0882640e-05  -8.3136074e-06  -1.1068765e-05  -1.6807490e-05  -1.9607822e-05   4.4355260e-05   4.0621716e-05   5.0001918e-06  -4.3292028e-05  -6.9764637e-05  -2.8135540e-05   1.0267401e-04   4.5771619e-05   2.4902495e-05  -7.0536084e-06  -1.1582146e-05  -8.0330944e-06  -1.0630896e-05  -2.7336602e-05  -8.6670462e-06  -2.5057386e-05  -1.0157911e-05  -3.8487828e-05   2.5056425e-05  -3.2371838e-06  -2.0949013e-05  -6.1938421e-06   3.9186907e-05   1.0244266e-05   7.1997200e-06   1.1250395e-05   4.2870577e-05   2.7211493e-05   4.6272772e-05   2.0048533e-05   3.8750450e-05   1.0116655e-05  -6.0857812e-05   1.2955511e-06  -5.1115026e-05  -9.7552487e-05  -5.7482505e-05   4.3340340e-05   2.9750881e-05   1.3748219e-05   3.8341096e-05   1.7499332e-05   4.4079197e-05   7.6886234e-05   6.2888682e-06   2.0523935e-05   3.1541807e-05   4.5755920e-05   4.1938900e-05   5.4529202e-05   6.9849159e-05   9.0276622e-05   7.8956074e-05  -5.0806573e-05   5.3919490e-05  -9.7715869e-05   1.1858984e-05   5.9336049e-06  -4.1257094e-06  -4.1197206e-05   4.3236516e-05  -4.0638276e-05  -8.9395698e-05   5.3809558e-05   6.1122229e-05   9.5333720e-05   5.9538727e-05   4.5086491e-05  -1.1259994e-05  -3.6848914e-05  -1.8640143e-05   7.2497906e-06  -1.5336765e-05  -2.1165168e-05  -5.8897075e-06   9.8046761e-06  -2.3602529e-05  -4.2092318e-05   6.0349157e-06   1.5508026e-05  -1.1085439e-05   2.6436955e-05   1.3893403e-05   1.0361937e-06  -3.4378504e-05  -2.6239114e-05  -3.3759332e-05  -4.1993913e-06   2.7307310e-05   3.8315178e-05   4.8596585e-05  -5.1679026e-06   4.3352139e-05  -2.5125744e-05  -7.5703044e-06   4.3317658e-05   4.0081410e-05   3.9762432e-06   3.7952177e-05  -2.5446571e-05  -1.3456265e-05   3.7243700e-05   1.1729895e-05   8.3039107e-05   5.0045928e-05  -3.3259133e-05   1.8623971e-05  -1.6105111e-06  -8.2191046e-05   1.1169396e-04   3.0050527e-05  -5.3507281e-05   1.1405621e-05   1.1777727e-04   1.6404638e-04   1.6644191e-04   1.0711490e-04   2.1516122e-06   3.3570032e-05   8.4175588e-05  -7.5311165e-05   8.4847736e-05   5.7797412e-05  -1.6084450e-06   5.6846223e-05   9.1011170e-06   1.5734797e-04   2.9379098e-04   1.0366912e-04   1.3512060e-04   1.1680586e-04   1.8302174e-04   1.8017902e-04   5.3810936e-05   4.6483093e-05   6.1274695e-05   1.8734016e-04   1.2754799e-04   4.5104323e-04   1.9613069e-04   2.0634772e-04  -3.9964873e-05   2.0180899e-04   1.4615458e-04   2.1950141e-04   1.5656911e-04  -1.6484750e-04  -3.2453004e-05   3.4065164e-05  -2.4519105e-05  -8.2982633e-05  -4.0940343e-05   1.0273569e-04   7.2839383e-05   7.4709103e-05   2.3573868e-05  -7.6316196e-05  -6.0956073e-06   4.4077214e-05   2.1741550e-05   3.1220809e-05   2.8017639e-05   6.8437442e-05  -7.0713936e-05  -6.2887760e-05  -5.6449195e-07  -1.3572899e-05  -2.9435383e-05  -2.9378316e-05  -2.5442786e-05   1.1568132e-04   5.9792771e-06   1.6920625e-05   6.6831200e-05   1.0830329e-04   3.3603529e-05   1.9969711e-04  -6.5532215e-06   3.5117322e-05   1.4997152e-04   1.2636961e-04   6.2979911e-05   4.6616382e-05   3.1873495e-05   6.1474208e-05  -5.0853750e-05  -1.3952383e-05   8.5733283e-06   2.8143376e-05  -2.7516252e-05   2.5283565e-05  -5.3143843e-06  -3.0903724e-06  -1.4921908e-05  -2.3152139e-05  -2.6330411e-05   3.0039641e-05  -3.9539485e-05  -2.1582666e-05  -2.9181612e-05  -4.5830301e-05  -4.4842379e-06  -5.7124481e-05  -2.5717760e-05  -3.6624090e-05   9.0958353e-07   1.4070465e-05  -5.6521787e-05  -3.4314928e-05  -1.6076030e-05  -8.9726659e-06  -2.0170780e-05  -2.8585993e-05   1.6709464e-05  -3.2038162e-05  -2.6022593e-05   4.4565378e-05  -3.7160496e-05  -1.7057420e-05   1.9019130e-05  -6.4330480e-05  -4.5167942e-06  -1.5717445e-04  -9.1660092e-05  -5.0202359e-04  -3.7506323e-04  -1.8799343e-04  -6.5510651e-05  -1.0525704e-03  -2.1690462e-04  -2.2645753e-04  -1.2656502e-04   1.8229780e-04   1.3469882e-05  -8.2514962e-04   4.5877289e-05  -4.3677130e-05  -9.4860723e-05  -2.1431069e-04   1.9733811e-04   1.2459345e-04  -1.1784651e-04  -1.1679297e-04  -2.9668280e-04   2.2012512e-06  -3.6190836e-04  -1.6670017e-04   1.1584059e-04   6.8679994e-05  -7.0461784e-05   3.8378489e-05   7.9879749e-06  -6.6025236e-04   1.1065777e-04   9.7868263e-05   2.0782075e-04   6.3456734e-06  -3.6113210e-05  -3.8611052e-04  -2.6133315e-04
  -4.5124367e-05  -1.4395680e-04  -2.7613291e-06   9.1676322e-06  -3.0918922e-06  -2.5086407e-05  -3.4861147e-05  -3.1227102e-05  -4.1825533e-05  -2.7914968e-05  -2.5177927e-05  -6.5746074e-05  -7.0560887e-06  -1.2248659e-05  -8.6626115e-06  -5.5245141e-05  -1.0169639e-04  -1.0431741e-04  -1.2267540e-04  -1.6635918e-04  -1.1586611e-04  -1.5323692e-05  -4.2469959e-05  -1.8471146e-05  -1.5392116e-04  -3.1843400e-05  -2.6132620e-05  -3.7983327e-05  -1.1257888e-04  -1.9960971e-05   1.8820527e-05  -1.1170906e-04  -1.1136573e-04  -8.0496875e-05  -8.7196461e-05  -1.2026931e-05  -8.4420611e-05  -2.4568530e-05  -1.3597792e-04  -1.6752178e-04  -7.4667659e-05  -4.6295356e-05  -7.2993757e-05  -1.7872914e-04  -1.7137223e-04  -2.0530795e-04  -6.8073097e-05  -6.6905765e-05  -1.0356188e-04  -1.6707017e-04  -7.3718128e-06   2.6146335e-05  -1.1010860e-04  -7.3779467e-05  -1.7263405e-04  -1.0315350e-04  -2.3229274e-04  -2.3301733e-04  -1.6394146e-04  -1.0503679e-04  -1.4474989e-04  -1.9506350e-04  -1.7192996e-04  -1.8360706e-04  -1.5465480e-04  -1.3074117e-04  -4.9046770e-05  -1.0398845e-04  -1.4142998e-04  -1.2909659e-04  -8.2629274e-05  -9.1006954e-06  -3.4312314e-05  -1.1940637e-04  -1.0890773e-04  -9.1799457e-05  -6.3472958e-04  -8.9298895e-04  -2.6376524e-04  -2.7844553e-04  -3.0534361e-04  -3.4096614e-04  -5.9517509e-04  -3.7803830e-04  -5.6830472e-04  -3.8935969e-04  -5.7141064e-04  -5.3956385e-04  -1.5835109e-04  -2.1625804e-04  -2.1006504e-04  -5.3441923e-04  -7.8031676e-04  -1.0039897e-03  -1.0350116e-03  -1.3381018e-03  -1.1097758e-03  -5.1682675e-04  -5.0020237e-04  -8.3339171e-04  -6.1055244e-04  -8.5028992e-04  -7.8891758e-04  -5.4342244e-04  -3.5149041e-04  -1.2203978e-04  -3.9706124e-04  -8.6582799e-04  -9.8994173e-04  -4.8303568e-04  -4.4397773e-04  -3.8230258e-04  -5.1147009e-05  -1.4656888e-04   1.0237478e-05  -3.6378476e-06  -3.4586001e-06  -4.4538413e-06  -1.1660345e-05  -1.3022297e-05   5.3349869e-05   4.8266162e-05   1.6291271e-05  -3.8512633e-05  -6.3709195e-05  -1.8704170e-05   1.0708586e-04   4.9835176e-05   2.8187803e-05   1.7947402e-06   9.6788107e-07   2.8146218e-06   1.9862426e-06  -1.1610434e-05   2.6234433e-06  -1.7567418e-05  -3.3714679e-06  -2.8263089e-05   3.9515654e-05   6.5412570e-06  -1.4131447e-05   5.4825634e-07   4.8724555e-05   1.6059857e-05   1.6710954e-05   2.2677780e-05   5.4882209e-05   3.5102229e-05   5.3918879e-05   2.5932145e-05   4.8018160e-05   1.5308166e-05  -5.3363659e-05   7.2239193e-06  -5.0163114e-05  -9.4729110e-05  -5.5716885e-05   4.4150218e-05   2.7923943e-05   1.2334930e-05   4.0124350e-05   1.6792933e-05   3.9156890e-05   7.7511909e-05   3.7134281e-06   1.9992813e-05   2.9514622e-05   4.7080823e-05   4.5824534e-05   6.1537257e-05   7.7715686e-05   9.7177709e-05   8.3093757e-05  -5.2999645e-05   5.5692296e-05  -9.8487613e-05   1.6251892e-05   2.7097197e-06  -7.6237170e-06  -4.2008988e-05   5.1514351e-05  -3.8822485e-05  -9.8187821e-05   5.7275673e-05   5.9323334e-05   9.8981619e-05   6.5080758e-05   4.4026376e-05  -5.8215905e-06  -3.7506944e-05  -1.0395565e-05   2.0763256e-05  -1.3238937e-05  -1.8598331e-05  -5.8662348e-07   1.5660342e-05  -2.1322499e-05  -3.9751237e-05   1.2470915e-05   2.1208400e-05  -5.2233302e-06   3.5564485e-05   1.3979357e-05   1.0666368e-06  -3.3605780e-05  -2.0044994e-05  -2.8914641e-05   4.0100490e-06   3.8563575e-05   5.5344749e-05   6.0917295e-05   2.4427832e-06   5.2291302e-05  -1.9629640e-05   3.8558217e-06   5.2978218e-05   4.3244610e-05   1.1671813e-05   4.6149470e-05  -2.0956453e-05  -5.8413314e-06   4.7494077e-05   1.9823952e-05   8.8974356e-05   5.4909637e-05  -2.9506580e-05   3.3101361e-05   7.1123950e-06  -7.9693966e-05   1.2522904e-04   4.1130617e-05  -2.6371044e-05   1.3933769e-05   1.0931877e-04   1.7536576e-04   1.7212885e-04   1.1055125e-04  -7.6581394e-07   6.4194173e-06   6.8798346e-05  -7.4736575e-05   8.5686537e-05   5.6009782e-05  -5.5667988e-06   6.1938345e-05   5.5240525e-07   1.5427193e-04   3.0572494e-04   1.1465646e-04   1.4253924e-04   1.2460755e-04   2.1266131e-04   1.9851330e-04   5.6796581e-05   4.4683778e-05   6.3082945e-05   2.0009881e-04   1.3189771e-04   4.9088131e-04   2.0027936e-04   2.0295058e-04  -2.8882498e-05   2.1645130e-04   1.4466161e-04   2.3513640e-04   1.6342126e-04  -1.5787927e-04  -2.1386666e-05   3.8875188e-05  -1.9186526e-05  -8.2662466e-05  -4.1825195e-05   1.0571499e-04   7.6855217e-05   7.4791779e-05   2.4881179e-05  -7.5296432e-05  -3.6109857e-06   4.0315566e-05   2.1210850e-05   3.2164388e-05   2.9280788e-05   7.9001985e-05  -6.2839480e-05  -5.4825102e-05   8.1846813e-06  -7.4110592e-06  -3.0547905e-05  -2.6972595e-05  -1.8113114e-05   1.3470218e-04   8.5375256e-06   2.4635697e-05   7.1553822e-05   1.1573081e-04   3.7607844e-05   1.9427763e-04   3.7719185e-06   4.7795041e-05   1.5691612e-04   1.3473645e-04   6.3412858e-05   4.8893174e-05   3.2005506e-05   6.4456767e-05  -5.0973845e-05  -1.2504867e-05   7.4255159e-06   2.7335062e-05  -2.8164129e-05   3.2989487e-05  -8.9325196e-07  -5.2120099e-06  -1.7993435e-05  -2.7198130e-05  -2.9977119e-05   3.0143850e-05  -3.5280160e-05  -1.8717192e-05  -3.3464739e-05  -4.4266310e-05  -4.3903444e-06  -5.7958756e-05  -2.5024676e-05  -3.6612816e-05   3.2879304e-06   1.3810053e-05  -4.9528010e-05  -3.2360634e-05  -2.2794657e-05  -7.2637201e-06  -2.0073027e-05  -2.8193090e-05   1.8409991e-05  -2.1745439e-05  -2.5169208e-05   4.4890639e-05  -3.6280015e-05  -1.6725350e-05   2.1348425e-05  -5.7025657e-05  -2.0669214e-06  -1.5142619e-04  -8.5641296e-05  -5.0251621e-04  -3.9288903e-04  -1.8603324e-04  -6.0841522e-05  -1.0784581e-03  -2.1562904e-04  -2.2353442e-04  -1.3598665e-04   1.8164315e-04   1.7806658e-05  -8.7407286e-04   2.6158839e-05  -4.9578774e-05  -8.7565509e-05  -2.1061630e-04   2.0255764e-04   1.3701186e-04  -9.3401886e-05  -1.0225981e-04  -2.9607752e-04   6.9169630e-06  -3.6702249e-04  -1.5979859e-04   1.2361352e-04   7.4599706e-05  -7.0799611e-05   5.9203717e-05   2.2655180e-06  -6.7201310e-04   1.2731066e-04   1.1076442e-04   2.1295916e-04   9.3080186e-06  -4.4626575e-05  -3.9077005e-04  -2.6147060e-04
  -5.6387169e-05  -1.5495003e-04  -9.6500714e-06   7.8539659e-07  -1.0486473e-05  -2.8867490e-05  -3.6203909e-05  -3.6031685e-05  -4.1127487e-05  -3.0468367e-05  -3.2088945e-05  -6.7846932e-05  -2.7103826e-06  -1.1141708e-05  -1.2937827e-05  -5.9796398e-05  -1.0871296e-04  -1.1316808e-04  -1.2862747e-04  -1.7241856e-04  -1.2039368e-04  -2.2276458e-05  -4.6305007e-05  -2.8957190e-05  -1.6134774e-04  -3.6668929e-05  -2.8617543e-05  -4.2114059e-05  -1.1356142e-04  -2.2098822e-05   2.1391932e-05  -1.1621911e-04  -1.1462580e-04  -7.7530570e-05  -8.5178966e-05  -1.1523161e-05  -8.5030767e-05  -2.6182506e-05  -1.3499341e-04  -1.6114602e-04  -6.8982128e-05  -5.1235390e-05  -7.3151064e-05  -1.8050180e-04  -1.9542259e-04  -2.1244815e-04  -5.5688145e-05  -6.2359728e-05  -1.0485670e-04  -1.6617252e-04  -2.1119491e-05   6.7274248e-06  -1.3563766e-04  -7.0611174e-05  -1.7160120e-04  -9.8576997e-05  -2.2837013e-04  -2.2527946e-04  -1.6009648e-04  -1.0759571e-04  -1.4698778e-04  -1.9897540e-04  -1.7151557e-04  -1.8035344e-04  -1.4862919e-04  -1.2594701e-04  -3.1687493e-05  -9.9716668e-05  -1.5882785e-04  -1.2368215e-04  -7.5792004e-05   3.5206655e-06  -2.1676537e-05  -1.5086723e-04  -1.1812454e-04  -9.2122158e-05  -6.3805408e-04  -9.1303983e-04  -2.6713171e-04  -2.7940619e-04  -2.9596731e-04  -3.4953269e-04  -5.8115298e-04  -3.7580173e-04  -5.7275126e-04  -3.7825574e-04  -6.2241461e-04  -5.6607555e-04  -1.6838702e-04  -2.1126464e-04  -2.2993524e-04  -5.5412817e-04  -8.1761824e-04  -1.0651082e-03  -1.0804212e-03  -1.3842189e-03  -1.1431755e-03  -5.0946610e-04  -5.0472883e-04  -8.4274644e-04  -6.3374642e-04  -8.2187701e-04  -8.0922349e-04  -5.3017610e-04  -3.8008509e-04  -1.4246591e-04  -3.8395270e-04  -8.7777531e-04  -9.9894948e-04  -4.8996481e-04  -4.6541928e-04  -3.8231451e-04  -5.1275458e-05  -1.5159940e-04   2.0496025e-05   1.4534579e-05   1.7857079e-06   2.4814784e-06  -6.0440307e-06  -5.4582796e-06   6.1806752e-05   5.5150301e-05   2.7635800e-05  -3.2968142e-05  -5.5105837e-05  -7.9963769e-06   1.1068155e-04   5.3193985e-05   3.0996275e-05   1.1160748e-05   1.4817820e-05   1.5054111e-05   1.6228916e-05   5.9222611e-06   1.5157630e-05  -9.2403088e-06   4.3523727e-06  -1.6254373e-05   5.3768806e-05   1.7164618e-05  -5.6367800e-06   7.6904309e-06   5.7380104e-05   2.1725784e-05   2.6419973e-05   3.5048403e-05   6.7011832e-05   4.3121104e-05   6.0834275e-05   3.1240688e-05   5.7162467e-05   2.0604943e-05  -4.5703073e-05   1.2848062e-05  -4.8382284e-05  -9.1044843e-05  -5.3433552e-05   4.4715164e-05   2.5606018e-05   1.1090321e-05   4.1858584e-05   1.5758310e-05   3.4280538e-05   7.7381584e-05   1.8227498e-06   1.9275346e-05   2.7220199e-05   4.8530974e-05   5.0010103e-05   6.7962920e-05   8.4760367e-05   1.0298706e-04   8.6667116e-05  -5.4834695e-05   5.7261826e-05  -9.7864168e-05   2.0433816e-05  -4.9909616e-07  -1.0826172e-05  -4.2285566e-05   5.9297711e-05  -3.5741202e-05  -1.0550304e-04   5.9967644e-05   5.6843288e-05   1.0143130e-04   6.9938127e-05   4.3022283e-05  -4.6736326e-07  -3.7701374e-05  -1.4383125e-06   3.4937236e-05  -1.0394886e-05  -1.4993064e-05   5.5523132e-06   2.2418350e-05  -1.7793707e-05  -3.6177940e-05   1.9388133e-05   2.7622501e-05   2.6812953e-06   4.5527479e-05   1.4416777e-05   1.5042892e-06  -3.1766844e-05  -1.2696217e-05  -2.2855758e-05   1.2879405e-05   5.0301568e-05   7.2984305e-05   7.3794801e-05   1.1079521e-05   6.1894629e-05  -1.2636840e-05   1.5480987e-05   6.3468046e-05   4.7578036e-05   1.9898323e-05   5.3410604e-05  -1.5256084e-05   3.5409436e-06   5.7974813e-05   2.8795229e-05   9.3756623e-05   5.8913955e-05  -2.4609582e-05   4.7038636e-05   1.6095704e-05  -7.8841457e-05   1.3725533e-04   5.1492862e-05   1.9563837e-06   1.6101059e-05   9.7170361e-05   1.8481793e-04   1.7544832e-04   1.1172492e-04  -5.4049063e-06  -2.2507840e-05   5.0088890e-05  -7.3797991e-05   8.5149557e-05   5.3144888e-05  -1.0233714e-05   6.6474876e-05  -9.1773836e-06   1.4661445e-04   3.0857217e-04   1.2109676e-04   1.4864412e-04   1.3118123e-04   2.4078504e-04   2.1447529e-04   5.7471877e-05   4.1367658e-05   6.4691631e-05   2.1006082e-04   1.3611098e-04   5.2700889e-04   1.9960805e-04   1.9342600e-04  -1.7454806e-05   2.2906298e-04   1.4054877e-04   2.4855923e-04   1.6645003e-04  -1.4853449e-04  -9.5637414e-06   4.4413506e-05  -1.1255742e-05  -8.1335232e-05  -4.2036567e-05   1.0889920e-04   8.0316842e-05   7.4873191e-05   2.7105466e-05  -7.3443596e-05  -1.0574170e-06   3.7041211e-05   2.0560965e-05   3.2941817e-05   3.1011230e-05   9.0025848e-05  -5.4513071e-05  -4.6118800e-05   1.6665153e-05  -1.0482451e-06  -3.0603516e-05  -2.4662983e-05  -8.8232172e-06   1.5266301e-04   1.1028169e-05   3.1835553e-05   7.5934135e-05   1.2222229e-04   4.0471544e-05   1.8803628e-04   1.4086002e-05   5.9822203e-05   1.6140391e-04   1.4264903e-04   6.2593909e-05   5.0394804e-05   3.1687215e-05   6.7801251e-05  -5.0869744e-05  -1.0807510e-05   7.4210067e-06   2.6679485e-05  -2.8623394e-05   4.0610512e-05   3.8943427e-06  -8.0637463e-06  -2.0880758e-05  -3.1009504e-05  -3.4010331e-05   3.0002557e-05  -3.0807036e-05  -1.6041772e-05  -3.8066646e-05  -4.2073785e-05  -4.1427017e-06  -5.8348753e-05  -2.4900888e-05  -3.7157537e-05   5.6582354e-06   1.3023605e-05  -4.0527993e-05  -3.0515562e-05  -2.9863079e-05  -4.6577388e-06  -1.9796120e-05  -2.9155218e-05   2.2037718e-05  -1.0048795e-05  -2.4582110e-05   4.4005255e-05  -3.6356729e-05  -1.7796568e-05   2.4643159e-05  -4.9120047e-05   3.1939492e-07  -1.4703380e-04  -8.1189414e-05  -5.0085990e-04  -4.0803702e-04  -1.8457836e-04  -5.6580156e-05  -1.0953154e-03  -2.1333141e-04  -2.1967152e-04  -1.4619933e-04   1.7666851e-04   2.0856929e-05  -9.1421861e-04   6.4893381e-06  -5.5121799e-05  -8.0902219e-05  -2.0525708e-04   2.0405414e-04   1.4725015e-04  -6.8415884e-05  -8.6809720e-05  -2.9449403e-04   9.6716551e-06  -3.6943431e-04  -1.5288210e-04   1.2769279e-04   7.6983743e-05  -7.2355165e-05   7.8505079e-05  -5.8596421e-06  -6.7941829e-04   1.4238438e-04   1.2149176e-04   2.1654014e-04   1.2344259e-05  -5.4553189e-05  -3.9433082e-04  -2.6054846e-04
  -6.7102134e-05  -1.6420246e-04  -1.6777273e-05  -8.1739822e-06  -1.7801245e-05  -3.2158184e-05  -3.6865185e-05  -4.0037399e-05  -4.0311745e-05  -3.2827944e-05  -3.8354613e-05  -6.9083555e-05   1.3503349e-06  -9.6075979e-06  -1.6544887e-05  -6.3801600e-05  -1.1470822e-04  -1.2056739e-04  -1.3309134e-04  -1.7644626e-04  -1.2354348e-04  -2.9090855e-05  -4.9516893e-05  -3.9636575e-05  -1.6699413e-04  -4.1156281e-05  -3.0901153e-05  -4.5903371e-05  -1.1336054e-04  -2.4109126e-05   2.3543819e-05  -1.1929690e-04  -1.1630962e-04  -7.3756689e-05  -8.2526723e-05  -1.0735340e-05  -8.3929119e-05  -2.7310244e-05  -1.3444861e-04  -1.5517958e-04  -6.4472003e-05  -5.8462719e-05  -7.4015460e-05  -1.8130472e-04  -2.2297717e-04  -2.2167284e-04  -4.2971458e-05  -5.7832036e-05  -1.0379333e-04  -1.6379512e-04  -3.9930215e-05  -1.8716057e-05  -1.6488588e-04  -6.7186015e-05  -1.6818558e-04  -9.2575606e-05  -2.2220885e-04  -2.1563321e-04  -1.5503800e-04  -1.1122532e-04  -1.4897342e-04  -2.0313218e-04  -1.7173398e-04  -1.7754352e-04  -1.4231070e-04  -1.2147506e-04  -1.5002857e-05  -9.7732081e-05  -1.7919313e-04  -1.1782671e-04  -6.9133284e-05   1.5540072e-05  -1.0043245e-05  -1.8628244e-04  -1.2871495e-04  -9.2752024e-05  -6.4419234e-04  -9.2818442e-04  -2.7107269e-04  -2.8500283e-04  -2.8791693e-04  -3.5708423e-04  -5.6223899e-04  -3.7155222e-04  -5.7747615e-04  -3.6617931e-04  -6.6799740e-04  -5.8750362e-04  -1.7301302e-04  -2.0508433e-04  -2.4706273e-04  -5.7330716e-04  -8.4980521e-04  -1.1199442e-03  -1.1192223e-03  -1.4182119e-03  -1.1647793e-03  -4.9988907e-04  -5.0473652e-04  -8.4948165e-04  -6.5590811e-04  -7.8508261e-04  -8.2015821e-04  -5.1249578e-04  -4.1155184e-04  -1.6425139e-04  -3.6998403e-04  -8.8451003e-04  -1.0005817e-03  -4.9508476e-04  -4.8502560e-04  -3.8013458e-04  -5.6594445e-05  -1.5653792e-04   3.1209472e-05   3.3098636e-05   7.3198064e-06   9.4982379e-06  -1.2129516e-07   2.8725479e-06   6.9490718e-05   6.1110687e-05   3.8593076e-05  -2.6865285e-05  -4.4115916e-05   3.6832311e-06   1.1346714e-04   5.5778636e-05   3.3321238e-05   2.0771071e-05   2.9579274e-05   2.8479790e-05   3.1778699e-05   2.4838468e-05   2.8678230e-05  -3.3184814e-07   1.2872663e-05  -2.8097228e-06   6.7422161e-05   2.8362639e-05   4.3260871e-06   1.4996628e-05   6.4928694e-05   2.7039067e-05   3.5914387e-05   4.8110249e-05   7.9050941e-05   5.1097645e-05   6.6887192e-05   3.5859633e-05   6.5905732e-05   2.5833730e-05  -3.8250381e-05   1.7911489e-05  -4.5815472e-05  -8.6643500e-05  -5.0761390e-05   4.5077147e-05   2.3019937e-05   1.0150516e-05   4.3483253e-05   1.4460823e-05   2.9721580e-05   7.6536905e-05   7.7176348e-07   1.8431025e-05   2.4843772e-05   5.0145513e-05   5.4505808e-05   7.3617013e-05   9.0749712e-05   1.0743380e-04   8.9550062e-05  -5.6322493e-05   5.8568169e-05  -9.5867555e-05   2.4301590e-05  -3.6846308e-06  -1.3617605e-05  -4.2107462e-05   6.6278960e-05  -3.1652494e-05  -1.1140786e-04   6.1716886e-05   5.3769361e-05   1.0262618e-04   7.3936566e-05   4.2032588e-05   4.4683290e-06  -3.7514723e-05   7.9171099e-06   4.9232223e-05  -6.9412934e-06  -1.0487392e-05   1.2340102e-05   2.9859913e-05  -1.3196544e-05  -3.1568617e-05   2.6480575e-05   3.4550265e-05   1.2380166e-05   5.5962276e-05   1.5122208e-05   2.3024337e-06  -2.8970949e-05  -4.4733577e-06  -1.5791749e-05   2.2142793e-05   6.2104639e-05   9.0578852e-05   8.6816461e-05   2.0399725e-05   7.1851278e-05  -4.5551367e-06   2.6852992e-05   7.4375938e-05   5.2967538e-05   2.8318664e-05   5.9478497e-05  -8.6822172e-06   1.4160228e-05   6.8298844e-05   3.8284939e-05   9.7121034e-05   6.1914311e-05  -1.8906423e-05   5.9751257e-05   2.4892207e-05  -8.0267719e-05   1.4690974e-04   6.0275903e-05   2.9642479e-05   1.7507778e-05   8.1417243e-05   1.9148643e-04   1.7596724e-04   1.0997726e-04  -1.2246489e-05  -5.2510251e-05   2.8189538e-05  -7.3164197e-05   8.2929400e-05   4.9043751e-05  -1.5968377e-05   6.9741315e-05  -1.9784886e-05   1.3423898e-04   3.0120861e-04   1.2199761e-04   1.5272635e-04   1.3591875e-04   2.6549967e-04   2.2730315e-04   5.5278787e-05   3.6338109e-05   6.5881279e-05   2.1634896e-04   1.3983639e-04   5.5623763e-04   1.9374947e-04   1.7796459e-04  -6.6350791e-06   2.3883561e-04   1.3359136e-04   2.5919371e-04   1.6506111e-04  -1.3723076e-04   2.6536857e-06   5.0578745e-05  -9.6684384e-07  -7.9053329e-05  -4.1546325e-05   1.1209883e-04   8.3052449e-05   7.4974529e-05   3.0223302e-05  -7.0914256e-05   1.4616971e-06   3.4134147e-05   1.9686594e-05   3.3446342e-05   3.3157474e-05   1.0128640e-04  -4.6043667e-05  -3.7049067e-05   2.4787058e-05   5.3683569e-06  -2.9546068e-05  -2.2513795e-05   2.2135092e-06   1.6930160e-04   1.3360536e-05   3.8183557e-05   7.9950329e-05   1.2768514e-04   4.2190497e-05   1.8135070e-04   2.4069915e-05   7.0700923e-05   1.6331773e-04   1.4989787e-04   6.0597770e-05   5.1167777e-05   3.0949406e-05   7.1358355e-05  -5.0912561e-05  -9.1996750e-06   8.3626570e-06   2.6079810e-05  -2.9099615e-05   4.7508514e-05   8.6105722e-06  -1.1835554e-05  -2.3696641e-05  -3.4658681e-05  -3.8558721e-05   2.9518578e-05  -2.6607991e-05  -1.3973175e-05  -4.3126217e-05  -3.9647423e-05  -3.8192613e-06  -5.8479673e-05  -2.5664177e-05  -3.8509485e-05   7.6252106e-06   1.1577517e-05  -3.0153587e-05  -2.9192113e-05  -3.7306079e-05  -1.3842987e-06  -1.9613351e-05  -3.1671113e-05   2.7399977e-05   2.0785127e-06  -2.4465930e-05   4.1877019e-05  -3.7516561e-05  -2.0435863e-05   2.8585692e-05  -4.1412895e-05   2.3504596e-06  -1.4447549e-04  -7.8770842e-05  -4.9776463e-04  -4.2029339e-04  -1.8406986e-04  -5.3146441e-05  -1.1040013e-03  -2.1037036e-04  -2.1530763e-04  -1.5696267e-04   1.6733442e-04   2.2286222e-05  -9.4552671e-04  -1.2416652e-05  -6.0162375e-05  -7.5240521e-05  -1.9863946e-04   2.0193980e-04   1.5502416e-04  -4.3810378e-05  -7.0976545e-05  -2.9240341e-04   1.0251676e-05  -3.6935142e-04  -1.4639789e-04   1.2793911e-04   7.5560373e-05  -7.5194278e-05   9.5610077e-05  -1.5915325e-05  -6.8304226e-04   1.5537383e-04   1.2955528e-04   2.1894845e-04   1.5491267e-05  -6.5441856e-05  -3.9723689e-04  -2.5893754e-04
  -7.6980623e-05  -1.7152001e-04  -2.3950642e-05  -1.7491932e-05  -2.4845703e-05  -3.4904551e-05  -3.6778933e-05  -4.3000119e-05  -3.9416369e-05  -3.4948743e-05  -4.3899417e-05  -6.9467550e-05   4.9878006e-06  -7.6378776e-06  -1.9290925e-05  -6.7155487e-05  -1.1955792e-04  -1.2631304e-04  -1.3597376e-04  -1.7837045e-04  -1.2525187e-04  -3.5598083e-05  -5.2054530e-05  -5.0264303e-05  -1.7069222e-04  -4.5196043e-05  -3.3045107e-05  -4.9269796e-05  -1.1192730e-04  -2.5908123e-05   2.5213712e-05  -1.2087445e-04  -1.1643415e-04  -6.9184222e-05  -7.9277354e-05  -9.6924725e-06  -8.1119545e-05  -2.7895984e-05  -1.3477243e-04  -1.5024078e-04  -6.1567286e-05  -6.8209394e-05  -7.5882340e-05  -1.8142764e-04  -2.5323545e-04  -2.3316004e-04  -3.0756586e-05  -5.3755949e-05  -1.0055348e-04  -1.6035111e-04  -6.3462009e-05  -4.9265975e-05  -1.9671868e-04  -6.3762774e-05  -1.6272174e-04  -8.5497612e-05  -2.1429968e-04  -2.0477287e-04  -1.4923468e-04  -1.1613622e-04  -1.5094866e-04  -2.0788099e-04  -1.7296931e-04  -1.7570273e-04  -1.3630841e-04  -1.1784112e-04   1.4615112e-07  -9.8489170e-05  -2.0195429e-04  -1.1206599e-04  -6.3204652e-05   2.6243810e-05  -2.0021886e-08  -2.2401993e-04  -1.4016402e-04  -9.3810924e-05  -6.5553725e-04  -9.3945493e-04  -2.7591088e-04  -2.9549427e-04  -2.8248794e-04  -3.6394974e-04  -5.3791412e-04  -3.6546580e-04  -5.8300050e-04  -3.5402502e-04  -7.0746278e-04  -6.0357356e-04  -1.7014280e-04  -1.9698514e-04  -2.6062637e-04  -5.9194697e-04  -8.7675408e-04  -1.1684205e-03  -1.1515497e-03  -1.4404112e-03  -1.1746995e-03  -4.8910086e-04  -5.0079755e-04  -8.5440916e-04  -6.7702818e-04  -7.4168543e-04  -8.2147754e-04  -4.9160403e-04  -4.4516964e-04  -1.8674647e-04  -3.5491866e-04  -8.8675344e-04  -9.9565237e-04  -4.9825015e-04  -5.0212020e-04  -3.7610323e-04  -6.6899282e-05  -1.6143571e-04   4.2131219e-05   5.1526518e-05   1.3052136e-05   1.6386783e-05   5.9460261e-06   1.1726158e-05   7.6227198e-05   6.6053023e-05   4.8752528e-05  -2.0427022e-05  -3.1029504e-05   1.5985150e-05   1.1548684e-04   5.7568396e-05   3.5203032e-05   3.0350618e-05   4.4816623e-05   4.2834911e-05   4.8252092e-05   4.4658029e-05   4.2891686e-05   8.8950909e-06   2.2018764e-05   1.1671414e-05   8.0132363e-05   3.9852593e-05   1.5466017e-05   2.2236667e-05   7.1224141e-05   3.1821226e-05   4.4809120e-05   6.1576371e-05   9.0797289e-05   5.8863678e-05   7.2005407e-05   3.9728127e-05   7.3992627e-05   3.0836198e-05  -3.1342212e-05   2.2185684e-05  -4.2526855e-05  -8.1654928e-05  -4.7823397e-05   4.5277237e-05   2.0414990e-05   9.6329012e-06   4.4928160e-05   1.2977346e-05   2.5717845e-05   7.5027604e-05   6.8291619e-07   1.7524249e-05   2.2572811e-05   5.1938911e-05   5.9290681e-05   7.8331489e-05   9.5476483e-05   1.1027118e-04   9.1608825e-05  -5.7474412e-05   5.9550641e-05  -9.2568943e-05   2.7773767e-05  -6.8473570e-06  -1.5913940e-05  -4.1568925e-05   7.2184694e-05  -2.6888617e-05  -1.1606060e-04   6.2384961e-05   5.0192949e-05   1.0256519e-04   7.6943897e-05   4.0990827e-05   8.6625878e-06  -3.7046816e-05   1.7341531e-05   6.3081080e-05  -3.0594269e-06  -5.2714515e-06   1.9550723e-05   3.7709709e-05  -7.7779993e-06  -2.6179189e-05   3.3406834e-05   4.1738122e-05   2.3482368e-05   6.6442419e-05   1.5972117e-05   3.3899743e-06  -2.5371190e-05   4.2795191e-06  -8.0008663e-06   3.1498727e-05   7.3521880e-05   1.0744427e-04   9.9525534e-05   3.0010819e-05   8.1806504e-05   4.1234920e-06   3.7535757e-05   8.5231226e-05   5.9183713e-05   3.6568667e-05   6.4150609e-05  -1.6348663e-06   2.5393208e-05   7.8061857e-05   4.7875898e-05   9.8843959e-05   6.3802517e-05  -1.2775028e-05   7.0621609e-05   3.3064573e-05  -8.4605296e-05   1.5327780e-04   6.6539251e-05   5.4568950e-05   1.7688644e-05   6.2270269e-05   1.9434928e-04   1.7329082e-04   1.0460583e-04  -2.1808291e-05  -8.2922212e-05   3.3132722e-06  -7.3602974e-05   7.8704572e-05   4.3548599e-05  -2.3184730e-05   7.0925492e-05  -3.0942509e-05   1.1717977e-04   2.8298292e-04   1.1660234e-04   1.5398639e-04   1.3823483e-04   2.8471003e-04   2.3624976e-04   4.9726533e-05   2.9412154e-05   6.6352673e-05   2.1814837e-04   1.4263696e-04   5.7517305e-04   1.8250666e-04   1.5700266e-04   2.5930325e-06   2.4497073e-04   1.2364376e-04   2.6652473e-04   1.5882457e-04  -1.2444371e-04   1.4892332e-05   5.7230471e-05   1.1302518e-05  -7.5887305e-05  -4.0371300e-05   1.1507993e-04   8.4903948e-05   7.5084057e-05   3.4148912e-05  -6.7893852e-05   3.8399531e-06   3.1401086e-05   1.8449935e-05   3.3562016e-05   3.5634094e-05   1.1252181e-04  -3.7738975e-05  -2.7912568e-05   3.2469499e-05   1.1683617e-05  -2.7361874e-05  -2.0571679e-05   1.4707360e-05   1.8444731e-04   1.5444389e-05   4.3369297e-05   8.3586870e-05   1.3206273e-04   4.2846471e-05   1.7457862e-04   3.3419742e-05   7.9982327e-05   1.6263275e-04   1.5626281e-04   5.7549095e-05   5.1302746e-05   2.9839611e-05   7.4954012e-05  -5.1461314e-05  -8.0260835e-06   9.9895316e-06   2.5418135e-05  -2.9804884e-05   5.3078952e-05   1.2800800e-05  -1.6683463e-05  -2.6578339e-05  -3.8261813e-05  -4.3742296e-05   2.8604831e-05  -2.3147114e-05  -1.2895443e-05  -4.8764643e-05  -3.7415074e-05  -3.5086957e-06  -5.8546793e-05  -2.7592198e-05  -4.0874184e-05   8.8058456e-06   9.3637611e-06  -1.9108018e-05  -2.8761887e-05  -4.5122609e-05   2.2587215e-06  -1.9793034e-05  -3.5824599e-05   3.4165208e-05   1.3644809e-05  -2.4994055e-05   3.8519386e-05  -3.9791197e-05  -2.4699715e-05   3.2819900e-05  -3.4667322e-05   3.7596132e-06  -1.4402712e-04  -7.8677856e-05  -4.9385493e-04  -4.2947237e-04  -1.8481948e-04  -5.0912750e-05  -1.1055638e-03  -2.0705604e-04  -2.1084280e-04  -1.6794649e-04   1.5378261e-04   2.1820728e-05  -9.6830465e-04  -2.9905464e-05  -6.4574061e-05  -7.0846058e-05  -1.9118536e-04   1.9644324e-04   1.6013779e-04  -2.0450435e-05  -5.5313562e-05  -2.9017898e-04   8.5593249e-06  -3.6695121e-04  -1.4069560e-04   1.2442404e-04   7.0303741e-05  -7.9256507e-05   1.1002968e-04  -2.7254457e-05  -6.8342842e-04   1.6585697e-04   1.3460117e-04   2.2054286e-04   1.8800051e-05  -7.6730712e-05  -3.9983303e-04  -2.5695097e-04
  -8.5756453e-05  -1.7675250e-04  -3.0967610e-05  -2.6921439e-05  -3.1440367e-05  -3.7078938e-05  -3.5908300e-05  -4.4727647e-05  -3.8458934e-05  -3.6780465e-05  -4.8682126e-05  -6.9031748e-05   8.0941568e-06  -5.2487181e-06  -2.1037906e-05  -6.9763789e-05  -1.2315649e-04  -1.3025493e-04  -1.3721776e-04  -1.7816649e-04  -1.2548504e-04  -4.1633440e-05  -5.3887929e-05  -6.0575538e-05  -1.7232392e-04  -4.8686708e-05  -3.5103593e-05  -5.2137912e-05  -1.0922929e-04  -2.7398733e-05   2.6383142e-05  -1.2092407e-04  -1.1506431e-04  -6.3833815e-05  -7.5457721e-05  -8.4228317e-06  -7.6668722e-05  -2.7902878e-05  -1.3631056e-04  -1.4682103e-04  -6.0570648e-05  -8.0547266e-05  -7.8978322e-05  -1.8116083e-04  -2.8511044e-04  -2.4681486e-04  -1.9839769e-05  -5.0524877e-05  -9.5413788e-05  -1.5627571e-04  -9.1000476e-05  -8.3594798e-05  -2.2972003e-04  -6.0562372e-05  -1.5561090e-04  -7.7716428e-05  -2.0516117e-04  -1.9338539e-04  -1.4314794e-04  -1.2242887e-04  -1.5313361e-04  -2.1348140e-04  -1.7548465e-04  -1.7525542e-04  -1.3119303e-04  -1.1547546e-04   1.3004760e-05  -1.0215216e-04  -2.2631349e-04  -1.0690567e-04  -5.8496318e-05   3.4995204e-05   7.9008945e-06  -2.6219879e-04  -1.5180753e-04  -9.5356722e-05  -6.7419470e-04  -9.4794469e-04  -2.8183348e-04  -3.1083271e-04  -2.8081945e-04  -3.7040775e-04  -5.0771878e-04  -3.5765567e-04  -5.8960849e-04  -3.4257511e-04  -7.4028841e-04  -6.1414416e-04  -1.5794864e-04  -1.8622691e-04  -2.6992481e-04  -6.0989408e-04  -8.9844656e-04  -1.2106027e-03  -1.1776556e-03  -1.4514180e-03  -1.1733679e-03  -4.7808515e-04  -4.9357444e-04  -8.5832077e-04  -6.9696838e-04  -6.9358640e-04  -8.1324232e-04  -4.6877027e-04  -4.7997829e-04  -2.0921809e-04  -3.3847966e-04  -8.8521885e-04  -9.8504472e-04  -4.9917626e-04  -5.1599719e-04  -3.7055755e-04  -8.1681016e-05  -1.6632475e-04   5.3024336e-05   6.9325314e-05   1.8904335e-05   2.2978848e-05   1.2005211e-05   2.0836304e-05   8.1909233e-05   6.9952995e-05   5.7762222e-05  -1.3878410e-05  -1.6252512e-05   2.8531072e-05   1.1681507e-04   5.8594264e-05   3.6722916e-05   3.9637724e-05   6.0067410e-05   5.7814280e-05   6.5214244e-05   6.4862323e-05   5.7478995e-05   1.8184136e-05   3.1596131e-05   2.6760409e-05   9.1624385e-05   5.1348808e-05   2.7425194e-05   2.9198482e-05   7.6202021e-05   3.5925890e-05   5.2771212e-05   7.5132826e-05   1.0205593e-04   6.6254308e-05   7.6171652e-05   4.2840064e-05   8.1204373e-05   3.5474066e-05  -2.5256141e-05   2.5483852e-05  -3.8600890e-05  -7.6196530e-05  -4.4730287e-05   4.5352793e-05   1.8047808e-05   9.6252325e-06   4.6124176e-05   1.1394277e-05   2.2461788e-05   7.2913727e-05   1.6365314e-06   1.6619676e-05   2.0580930e-05   5.3904957e-05   6.4309491e-05   8.1964612e-05   9.8769381e-05   1.1128751e-04   9.2708208e-05  -5.8301176e-05   6.0154512e-05  -8.8085431e-05   3.0797515e-05  -9.9897296e-06  -1.7659556e-05  -4.0777050e-05   7.6791688e-05  -2.1829995e-05  -1.1969651e-04   6.1873450e-05   4.6206027e-05   1.0130369e-04   7.8877488e-05   3.9815080e-05   1.1824151e-05  -3.6407849e-05   2.6510730e-05   7.5922034e-05   1.0361997e-06   4.2297563e-07   2.6932992e-05   4.5651287e-05  -1.8335488e-06  -2.0304851e-05   3.9813590e-05   4.8892649e-05   3.5475505e-05   7.6502216e-05   1.6813726e-05   4.6789235e-06  -2.1152738e-05   1.3171114e-05   1.8109193e-07   4.0624165e-05   8.4091188e-05   1.2290103e-04   1.1144556e-04   3.9496461e-05   9.1382788e-05   1.2856344e-05   4.7129968e-05   9.5532001e-05   6.5898261e-05   4.4280377e-05   6.7286622e-05   5.4501978e-06   3.6572043e-05   8.6863822e-05   5.7116467e-05   9.8759693e-05   6.4514800e-05  -6.6050027e-06   7.9145182e-05   4.0214338e-05  -9.2453464e-05   1.5544557e-04   6.9315058e-05   7.4439008e-05   1.6134397e-05   4.0058808e-05   1.9235474e-04   1.6709846e-04   9.4909626e-05  -3.4614878e-05  -1.1312787e-04  -2.4256204e-05  -7.5899098e-05   7.2162686e-05   3.6522599e-05  -3.2314718e-05   6.9167125e-05  -4.2324580e-05   9.5638856e-05   2.5377289e-04   1.0447201e-04   1.5159565e-04   1.3760808e-04   2.9624728e-04   2.4060969e-04   4.0433447e-05   2.0475008e-05   6.5745975e-05   2.1475870e-04   1.4401899e-04   5.8042920e-04   1.6589865e-04   1.3120667e-04   9.2934618e-06   2.4673532e-04   1.1067224e-04   2.7013140e-04   1.4750539e-04  -1.1067883e-04   2.6785843e-05   6.4202336e-05   2.5068723e-05  -7.1920565e-05  -3.8568638e-05   1.1758355e-04   8.5734669e-05   7.5172773e-05   3.8742798e-05  -6.4584751e-05   5.9646331e-06   2.8589206e-05   1.6695076e-05   3.3168528e-05   3.8325574e-05   1.2344110e-04  -2.9894181e-05  -1.9008731e-05   3.9643137e-05   1.7734793e-05  -2.4086307e-05  -1.8866535e-05   2.8316617e-05   1.9801077e-04   1.7204715e-05   4.7129722e-05   8.6838149e-05   1.3533115e-04   4.2595535e-05   1.6804488e-04   4.1858038e-05   8.7300359e-05   1.5941602e-04   1.6152357e-04   5.3608658e-05   5.0932905e-05   2.8427725e-05   7.8402947e-05  -5.2835402e-05  -7.6003044e-06   1.2000170e-05   2.4571699e-05  -3.0939439e-05   5.6808163e-05   1.6035162e-05  -2.2702740e-05  -2.9670303e-05  -4.1967550e-05  -4.9648425e-05   2.7194020e-05  -2.0820353e-05  -1.3120149e-05  -5.5062606e-05  -3.5800118e-05  -3.3085987e-06  -5.8741665e-05  -3.0892177e-05  -4.4385765e-05   8.8670946e-06   6.3155091e-06  -8.1076917e-06  -2.9519333e-05  -5.3266045e-05   5.9379190e-06  -2.0568224e-05  -4.1581517e-05   4.1895662e-05   2.3735405e-05  -2.6286847e-05   3.4002593e-05  -4.3119665e-05  -3.0525610e-05   3.6990343e-05  -2.9535249e-05   4.3232257e-06  -1.4574789e-04  -8.1010353e-05  -4.8962704e-04  -4.3542978e-04  -1.8697457e-04  -5.0175728e-05  -1.1011902e-03  -2.0363143e-04  -2.0661951e-04  -1.7875623e-04   1.3632924e-04   1.9285995e-05  -9.8319098e-04  -4.5414939e-05  -6.8252941e-05  -6.7877078e-05  -1.8330677e-04   1.8790161e-04   1.6249315e-04   8.8460767e-07  -4.0357075e-05  -2.8808830e-04   4.6167527e-06  -3.6236810e-04  -1.3599897e-04   1.1742402e-04   6.1456095e-05  -8.4360628e-05   1.2148096e-04  -3.9091411e-05  -6.8105278e-04   1.7352040e-04   1.3644195e-04   2.2162283e-04   2.2345516e-05  -8.7799877e-05  -4.0234667e-04  -2.5482181e-04
  -9.3194700e-05  -1.7979265e-04  -3.7622077e-05  -3.6192430e-05  -3.7421156e-05  -3.8674929e-05  -3.4247912e-05  -4.5091407e-05  -3.7435653e-05  -3.8269017e-05  -5.2685796e-05  -6.7827125e-05   1.0598950e-05  -2.4798045e-06  -2.1705198e-05  -7.1546666e-05  -1.2541681e-04  -1.3230093e-04  -1.3680577e-04  -1.7586052e-04  -1.2424145e-04  -4.7039760e-05  -5.5005816e-05  -7.0292901e-05  -1.7182758e-04  -5.1538242e-05  -3.7116217e-05  -5.4438876e-05  -1.0525785e-04  -2.8474695e-05   2.7078816e-05  -1.1945893e-04  -1.1230480e-04  -5.7746441e-05  -7.1088267e-05  -6.9507438e-06  -7.0706306e-05  -2.7318009e-05  -1.3930386e-04  -1.4526152e-04  -6.1638213e-05  -9.5361727e-05  -8.3440695e-05  -1.8077184e-04  -3.1729700e-04  -2.6226976e-04  -1.0924658e-05  -4.8463719e-05  -8.8726035e-05  -1.5199174e-04  -1.2149895e-04  -1.2007323e-04  -2.6230062e-04  -5.7749799e-05  -1.4728840e-04  -6.9607903e-05  -1.9530523e-04  -1.8210985e-04  -1.3719727e-04  -1.3009093e-04  -1.5570985e-04  -2.2008923e-04  -1.7940930e-04  -1.7650574e-04  -1.2746073e-04  -1.1469666e-04   2.2964863e-05  -1.0857469e-04  -2.5131932e-04  -1.0278290e-04  -5.5402051e-05   4.1290153e-05   1.3375331e-05  -2.9884303e-04  -1.6290339e-04  -9.7384383e-05  -7.0185792e-04  -9.5473331e-04  -2.8886139e-04  -3.3064392e-04  -2.8381687e-04  -3.7665941e-04  -4.7131606e-04  -3.4815641e-04  -5.9729371e-04  -3.3246345e-04  -7.6612795e-04  -6.1918430e-04  -1.3499934e-04  -1.7212779e-04  -2.7442374e-04  -6.2683475e-04  -9.1495530e-04  -1.2466758e-03  -1.1978551e-03  -1.4520558e-03  -1.1615001e-03  -4.6773589e-04  -4.8377448e-04  -8.6192418e-04  -7.1546482e-04  -6.4270589e-04  -7.9582560e-04  -4.4521873e-04  -5.1481974e-04  -2.3088141e-04  -3.2043493e-04  -8.8057004e-04  -9.6965327e-04  -4.9744915e-04  -5.2596578e-04  -3.6381792e-04  -1.0017909e-04  -1.7121209e-04   6.3668636e-05   8.6056889e-05   2.4815100e-05   2.9161347e-05   1.7920330e-05   2.9927401e-05   8.6500896e-05   7.2853961e-05   6.5348872e-05  -7.4360642e-06  -2.9017210e-07   4.0929454e-05   1.1755642e-04   5.8931495e-05   3.7993578e-05   4.8394817e-05   7.4866934e-05   7.3076284e-05   8.2196342e-05   8.4913677e-05   7.2104100e-05   2.7299430e-05   4.1393140e-05   4.2023467e-05   1.0169866e-04   6.2576515e-05   3.9796655e-05   3.5701027e-05   7.9879121e-05   3.9250496e-05   5.9541661e-05   8.8449464e-05   1.1263897e-04   7.3116918e-05   7.9423599e-05   4.5239187e-05   8.7367237e-05   3.9636600e-05  -2.0199484e-05   2.7667915e-05  -3.4142544e-05  -7.0367615e-05  -4.1576760e-05   4.5337394e-05   1.6160242e-05   1.0180647e-05   4.7002155e-05   9.7953123e-06   2.0092247e-05   7.0259326e-05   3.6694631e-06   1.5776642e-05   1.9014413e-05   5.6012680e-05   6.9475570e-05   8.4413041e-05   1.0050190e-04   1.1032689e-04   9.2722719e-05  -5.8813667e-05   6.0340695e-05  -8.2575796e-05   3.3343459e-05  -1.3108917e-05  -1.8836451e-05  -3.9837375e-05   7.9940749e-05  -1.6878734e-05  -1.2259231e-04   6.0137562e-05   4.1900152e-05   9.8948827e-05   7.9708424e-05   3.8422275e-05   1.3708275e-05  -3.5709869e-05   3.5122539e-05   8.7230037e-05   5.1145173e-06   6.3425660e-06   3.4223538e-05   5.3346520e-05   4.3146430e-06  -1.4261326e-05   4.5353589e-05   5.5698295e-05   4.7755845e-05   8.5665557e-05   1.7478420e-05   6.0743986e-06  -1.6519886e-05   2.1785044e-05   8.3774394e-06   4.9186418e-05   9.3364270e-05   1.3631480e-04   1.2210786e-04   4.8441706e-05   1.0020235e-04   2.1091129e-05   5.5291511e-05   1.0478067e-04   7.2705037e-05   5.1104298e-05   6.8813342e-05   1.2137355e-05   4.7038812e-05   9.4331887e-05   6.5548622e-05   9.6773887e-05   6.4031806e-05  -7.6915696e-07   8.4959768e-05   4.6007026e-05  -1.0434600e-04   1.5255189e-04   6.7674038e-05   8.6927840e-05   1.2338559e-05   1.5232339e-05   1.8446699e-04   1.5715773e-04   8.0251918e-05  -5.1159009e-05  -1.4259978e-04  -5.4158615e-05  -8.0811832e-05   6.3024461e-05   2.7863548e-05  -4.3768880e-05   6.3633876e-05  -5.3620533e-05   7.0007462e-05   2.1402835e-04   8.5525884e-05   1.4474482e-04   1.3363887e-04   2.9802523e-04   2.3975773e-04   2.7158171e-05   9.4691034e-06   6.3651663e-05   2.0566882e-04   1.4346555e-04   5.6892318e-04   1.4415992e-04   1.0142630e-04   1.2645510e-05   2.4352866e-04   9.4774240e-05   2.6972292e-04   1.3110657e-04  -9.6447450e-05   3.7997783e-05   7.1309285e-05   3.9771657e-05  -6.7244990e-05  -3.6234784e-05   1.1935392e-04   8.5444543e-05   7.5196327e-05   4.3823010e-05  -6.1194534e-05   7.7303280e-06   2.5414131e-05   1.4259764e-05   3.2157487e-05   4.1093597e-05   1.3373607e-04  -2.2781927e-05  -1.0626040e-05   4.6227915e-05   2.3356100e-05  -1.9796168e-05  -1.7411719e-05   4.2665492e-05   2.0997063e-04   1.8584273e-05   4.9268409e-05   8.9701310e-05   1.3750171e-04   4.1656027e-05   1.6203238e-04   4.9147571e-05   9.2394772e-05   1.5382318e-04   1.6547841e-04   4.8963281e-05   5.0217525e-05   2.6796730e-05   8.1531381e-05  -5.5275190e-05  -8.1759609e-06   1.4088585e-05   2.3433626e-05  -3.2669290e-05   5.8331256e-05   1.7953222e-05  -2.9914024e-05  -3.3103499e-05  -4.5935157e-05  -5.6321078e-05   2.5255823e-05  -1.9914203e-05  -1.4849001e-05  -6.2044836e-05  -3.5189939e-05  -3.3079752e-06  -5.9229685e-05  -3.5675081e-05  -4.9093890e-05   7.5619788e-06   2.4153498e-06   2.1712510e-06  -3.1645304e-05  -6.1631546e-05   9.3147792e-06  -2.2113783e-05  -4.8775981e-05   5.0085452e-05   3.1592649e-05  -2.8402552e-05   2.8453978e-05  -4.7344501e-05  -3.7729489e-05   4.0785678e-05  -2.6503759e-05   3.8873855e-06  -1.4946346e-04  -8.5669032e-05  -4.8543691e-04  -4.3808300e-04  -1.9052114e-04  -5.1134017e-05  -1.0921211e-03  -2.0026367e-04  -2.0290098e-04  -1.8895786e-04   1.1546050e-04   1.4617883e-05  -9.9110729e-04  -5.8502662e-05  -7.1123360e-05  -6.6383680e-05  -1.7538329e-04   1.7672694e-04   1.6209699e-04   1.9540338e-05  -2.6600327e-05  -2.8626880e-04  -1.4402601e-06  -3.5568666e-04  -1.3241625e-04   1.0739489e-04   4.9505820e-05  -9.0221488e-05   1.2989857e-04  -5.0574885e-05  -6.7629040e-04   1.7817414e-04   1.3507041e-04   2.2240378e-04   2.6208908e-05  -9.8001374e-05  -4.0486243e-04  -2.5270157e-04
  -9.9099045e-05  -1.8058069e-04  -4.3712815e-05  -4.5021335e-05  -4.2643013e-05  -3.9706412e-05  -3.1820194e-05  -4.4027837e-05  -3.6324296e-05  -3.9360449e-05  -5.5911466e-05  -6.5919219e-05   1.2470785e-05   6.0890231e-07  -2.1270040e-05  -7.2441148e-05  -1.2627377e-04  -1.3241742e-04  -1.3475777e-04  -1.7152724e-04  -1.2155091e-04  -5.1674658e-05  -5.5413952e-05  -7.9137352e-05  -1.6920226e-04  -5.3675354e-05  -3.9096643e-05  -5.6114252e-05  -1.0003453e-04  -2.9029492e-05   2.7368962e-05  -1.1653278e-04  -1.0829169e-04  -5.0990173e-05  -6.6189525e-05  -5.2951691e-06  -6.3418837e-05  -2.6152053e-05  -1.4387501e-04  -1.4572517e-04  -6.4767825e-05  -1.1234757e-04  -8.9307588e-05  -1.8049063e-04  -3.4838258e-04  -2.7889787e-04  -4.5731722e-06  -4.7803483e-05  -8.0879656e-05  -1.4788089e-04  -1.5364338e-04  -1.5690552e-04  -2.9282508e-04  -5.5428849e-05  -1.3819420e-04  -6.1524861e-05  -1.8520251e-04  -1.7150471e-04  -1.3173657e-04  -1.3899890e-04  -1.5881166e-04  -2.2774164e-04  -1.8473766e-04  -1.7961888e-04  -1.2549234e-04  -1.1569107e-04   2.9610833e-05  -1.1730127e-04  -2.7594441e-04  -1.0004217e-04  -5.4191065e-05   4.4804346e-05   1.6230361e-05  -3.3204989e-04  -1.7270047e-04  -9.9829634e-05  -7.3965976e-04  -9.6082087e-04  -2.9683083e-04  -3.5424428e-04  -2.9209978e-04  -3.8282078e-04  -4.2853285e-04  -3.3692629e-04  -6.0578557e-04  -3.2412148e-04  -7.8479541e-04  -6.1879443e-04  -1.0034000e-04  -1.5412326e-04  -2.7376683e-04  -6.4230777e-04  -9.2641604e-04  -1.2768974e-03  -1.2125094e-03  -1.4433007e-03  -1.1400519e-03  -4.5880040e-04  -4.7210079e-04  -8.6579376e-04  -7.3211879e-04  -5.9088375e-04  -7.6992517e-04  -4.2207373e-04  -5.4838364e-04  -2.5091716e-04  -3.0058827e-04  -8.7336774e-04  -9.5032915e-04  -4.9255933e-04  -5.3139178e-04  -3.5616518e-04  -1.2143324e-04  -1.7608056e-04   7.3870325e-05   1.0135666e-04   3.0738378e-05   3.4882113e-05   2.3577333e-05   3.8727503e-05   9.0034117e-05   7.4855841e-05   7.1332468e-05  -1.2958333e-06   1.6281134e-05   5.2795057e-05   1.1783798e-04   5.8695792e-05   3.9146522e-05   5.6421927e-05   8.8771845e-05   8.8250081e-05   9.8716040e-05   1.0427416e-04   8.6428758e-05   3.6036039e-05   5.1188619e-05   5.7042614e-05   1.1023489e-04   7.3280824e-05   5.2146547e-05   4.1599977e-05   8.2344981e-05   4.1736027e-05   6.4947119e-05   1.0118994e-04   1.2236549e-04   7.9313602e-05   8.1843623e-05   4.7007136e-05   9.2357958e-05   4.3245500e-05  -1.6299979e-05   2.8657898e-05  -2.9269139e-05  -6.4249933e-05  -3.8436188e-05   4.5256609e-05   1.4961866e-05   1.1309860e-05   4.7507316e-05   8.2587162e-06   1.8689260e-05   6.7136724e-05   6.7748621e-06   1.5042935e-05   1.7979791e-05   5.8209000e-05   7.4672178e-05   8.5615807e-05   1.0060306e-04   1.0730659e-04   9.1551420e-05  -5.9018398e-05   6.0090224e-05  -7.6232511e-05   3.5408211e-05  -1.6192158e-05  -1.9457853e-05  -3.8852595e-05   8.1541200e-05  -1.2421490e-05  -1.2503993e-04   5.7190855e-05   3.7365022e-05   9.5653211e-05   7.9463976e-05   3.6742959e-05   1.4128737e-05  -3.5057096e-05   4.2911155e-05   9.6546781e-05   8.9421023e-06   1.2227384e-05   4.1161349e-05   6.0455279e-05   1.0339169e-05  -8.3614089e-06   4.9712432e-05   6.1836261e-05   5.9665979e-05   9.3474889e-05   1.7799811e-05   7.4840304e-06  -1.1684015e-05   2.9703771e-05   1.6192647e-05   5.6861843e-05   1.0093241e-04   1.4713469e-04   1.3107692e-04   5.6460127e-05   1.0791208e-04   2.8305194e-05   6.1749330e-05   1.1251519e-04   7.9149954e-05   5.6730200e-05   6.8724274e-05   1.8021208e-05   5.6194741e-05   1.0014276e-04   7.2735946e-05   9.2873438e-05   6.2381382e-05   4.4020315e-06   8.7870790e-05   5.0195823e-05  -1.2071288e-04   1.4385157e-04   6.0780214e-05   8.9803677e-05   5.8255294e-06  -1.1658495e-05   1.6978062e-04   1.4336976e-04   6.0112737e-05  -7.1858294e-05  -1.7090098e-04  -8.5961767e-05  -8.9003244e-05   5.1072435e-05   1.7520352e-05  -5.7908335e-05   5.3588252e-05  -6.4557236e-05   4.0840098e-05   1.6477448e-04   6.0063496e-05   1.3271651e-04   1.2608113e-04   2.8819000e-04   2.3318725e-04   9.8392387e-06  -3.5802829e-06   5.9656901e-05   1.9058282e-04   1.4048919e-04   5.3811357e-04   1.1775271e-04   6.8667438e-05   1.2004746e-05   2.3492149e-04   7.6175466e-05   2.6515601e-04   1.0987047e-04  -8.2244213e-05   4.8228274e-05   7.8361713e-05   5.4814668e-05  -6.1959203e-05  -3.3497139e-05   1.2015785e-04   8.3975256e-05   7.5105663e-05   4.9174590e-05  -5.7916631e-05   9.0422300e-06   2.1589588e-05   1.0993340e-05   3.0436448e-05   4.3788144e-05   1.4309628e-04  -1.6641433e-05  -3.0356127e-06   5.2140711e-05   2.8379612e-05  -1.4606876e-05  -1.6204444e-05   5.7368652e-05   2.2035090e-04   1.9550106e-05   4.9678700e-05   9.2180112e-05   1.3861114e-04   4.0284529e-05   1.5678399e-04   5.5099686e-05   9.5130110e-05   1.4609003e-04   1.6795659e-04   4.3811309e-05   4.9333888e-05   2.5035030e-05   8.4192495e-05  -5.8913276e-05  -9.9206483e-06   1.5968681e-05   2.1923583e-05  -3.5111308e-05   5.7468036e-05   1.8299647e-05  -3.8250509e-05  -3.6984419e-05  -5.0317449e-05  -6.3740978e-05   2.2803589e-05  -2.0575105e-05  -1.8147037e-05  -6.9662246e-05  -3.5901347e-05  -3.5820191e-06  -6.0132108e-05  -4.1934961e-05  -5.4950479e-05   4.7529908e-06  -2.2934809e-06   1.1148164e-05  -3.5185248e-05  -7.0047793e-05   1.2074880e-05  -2.4522546e-05  -5.7119845e-05   5.8210433e-05   3.6687362e-05  -3.1319465e-05   2.2061375e-05  -5.2224352e-05  -4.6015383e-05   4.3975171e-05  -2.5847780e-05   2.3859068e-06  -1.5480809e-04  -9.2360789e-05  -4.8148568e-04  -4.3741101e-04  -1.9527678e-04  -5.3870809e-05  -1.0795944e-03  -1.9704090e-04  -1.9986547e-04  -1.9809864e-04   9.1818143e-05   7.8648118e-06  -9.9318394e-04  -6.8861618e-05  -7.3143426e-05  -6.6302466e-05  -1.6773698e-04   1.6339764e-04   1.5905815e-04   3.5024841e-05  -1.4472157e-05  -2.8474627e-04  -9.3660080e-06  -3.4694939e-04  -1.2993151e-04   9.4951980e-05   3.5163907e-05  -9.6474289e-05   1.3543196e-04  -6.0850200e-05  -6.6941407e-04   1.7975983e-04   1.3064976e-04   2.2299772e-04   3.0471928e-05  -1.0672333e-04  -4.0733120e-04  -2.5063604e-04
  -1.0331846e-04  -1.7910380e-04  -4.9050818e-05  -5.3123617e-05  -4.6984741e-05  -4.0202780e-05  -2.8674828e-05  -4.1539867e-05  -3.5089435e-05  -4.0000532e-05  -5.8369068e-05  -6.3382601e-05   1.3717279e-05   3.9415678e-06  -1.9761768e-05  -7.2404820e-05  -1.2568594e-04  -1.3062898e-04  -1.3113218e-04  -1.6529008e-04  -1.1747677e-04  -5.5413163e-05  -5.5133435e-05  -8.6840486e-05  -1.6451093e-04  -5.5041043e-05  -4.1029137e-05  -5.7116034e-05  -9.3618857e-05  -2.8963914e-05   2.7353647e-05  -1.1223730e-04  -1.0318456e-04  -4.3665998e-05  -6.0790002e-05  -3.4707664e-06  -5.5043230e-05  -2.4440886e-05  -1.5001435e-04  -1.4820581e-04  -6.9805608e-05  -1.3102654e-04  -9.6514408e-05  -1.8049614e-04  -3.7695280e-04  -2.9586441e-04  -1.1661082e-06  -4.8656765e-05  -7.2273927e-05  -1.4425958e-04  -1.8594198e-04  -1.9226602e-04  -3.1973661e-04  -5.3636864e-05  -1.2874535e-04  -5.3775926e-05  -1.7525810e-04  -1.6201250e-04  -1.2703680e-04  -1.4893175e-04  -1.6251965e-04  -2.3635937e-04  -1.9133408e-04  -1.8462311e-04  -1.2553835e-04  -1.1850655e-04   3.2739775e-05  -1.2759557e-04  -2.9917615e-04  -9.8914791e-05  -5.4996308e-05   4.5429005e-05   1.6477075e-05  -3.6013404e-04  -1.8051034e-04  -1.0258852e-04  -7.8807040e-04  -9.6703864e-04  -3.0538695e-04  -3.8063796e-04  -3.0594666e-04  -3.8891480e-04  -3.7940640e-04  -3.2383836e-04  -6.1453220e-04  -3.1775603e-04  -7.9628086e-04  -6.1317323e-04  -5.3572003e-05  -1.3181151e-04  -2.6779854e-04  -6.5572202e-04  -9.3302808e-04  -1.3015632e-03  -1.2219953e-03  -1.4262069e-03  -1.1101526e-03  -4.5183772e-04  -4.5921452e-04  -8.7034164e-04  -7.4641931e-04  -5.3979806e-04  -7.3651031e-04  -4.0028864e-04  -5.7928431e-04  -2.6850460e-04  -2.7884370e-04  -8.6404919e-04  -9.2784283e-04  -4.8395865e-04  -5.3172968e-04  -3.4782225e-04  -1.4435408e-04  -1.8087880e-04   8.3468357e-05   1.1494637e-04   3.6644334e-05   4.0152619e-05   2.8884484e-05   4.6979837e-05   9.2602359e-05   7.6102228e-05   7.5637123e-05   4.3729431e-06   3.2844122e-05   6.3766181e-05   1.1780121e-04   5.8030486e-05   4.0317913e-05   6.3558942e-05   1.0138477e-04   1.0295136e-04   1.1429716e-04   1.2242817e-04   1.0011818e-04   4.4224701e-05   6.0758688e-05   7.1435873e-05   1.1718835e-04   8.3235209e-05   6.4038901e-05   4.6796263e-05   8.3751276e-05   4.3373577e-05   6.8908293e-05   1.1302498e-04   1.3106292e-04   8.4726898e-05   8.3548981e-05   4.8253895e-05   9.6105949e-05   4.6254163e-05  -1.3603117e-05   2.8435285e-05  -2.4111097e-05  -5.7911839e-05  -3.5360329e-05   4.5132127e-05   1.4609297e-05   1.2981702e-05   4.7598300e-05   6.8513544e-06   1.8273551e-05   6.3623050e-05   1.0901850e-05   1.4451568e-05   1.7534152e-05   6.0420396e-05   7.9758905e-05   8.5556594e-05   9.9061296e-05   1.0222208e-04   8.9125488e-05  -5.8919212e-05   5.9410170e-05  -6.9272191e-05   3.7008748e-05  -1.9210392e-05  -1.9565731e-05  -3.7914394e-05   8.1575532e-05  -8.8059504e-06  -1.2731625e-04   5.3111109e-05   3.2688143e-05   9.1604308e-05   7.8221775e-05   3.4730860e-05   1.2968523e-05  -3.4540000e-05   4.9662049e-05   1.0350473e-04   1.2299771e-05   1.7828281e-05   4.7503394e-05   6.6656496e-05   1.5929476e-05  -2.8983369e-06   5.2625369e-05   6.7005751e-05   7.0536225e-05   9.9520666e-05   1.7629414e-05   8.8239048e-06  -6.8539551e-06   3.6532356e-05   2.3232664e-05   6.3348236e-05   1.0645000e-04   1.5492255e-04   1.3797846e-04   6.3217630e-05   1.1420429e-04   3.4043019e-05   6.6313649e-05   1.1834060e-04   8.4763297e-05   6.0907771e-05   6.7075067e-05   2.2759504e-05   6.3548386e-05   1.0404060e-04   7.8289671e-05   8.7130731e-05   5.9634435e-05   8.6410347e-06   8.7859128e-05   5.2635720e-05  -1.4184607e-04   1.2876874e-04   4.7964662e-05   8.1123314e-05  -3.8007226e-06  -3.9986228e-05   1.4757933e-04   1.2577183e-04   3.4155424e-05  -9.7020709e-05  -1.9770245e-04  -1.1917858e-04  -1.0097975e-04   3.6175246e-05   5.5045299e-06  -7.4994641e-05   3.8461231e-05  -7.4913856e-05   8.8389522e-06   1.0756101e-04   2.8753348e-05   1.1493877e-04   1.1488035e-04   2.6528677e-04   2.2053215e-04  -1.1399252e-05  -1.8569556e-05   5.3369600e-05   1.6947541e-04   1.3466688e-04   4.8626201e-04   8.7335378e-05   3.4022704e-05   6.9545179e-06   2.2071679e-04   5.5229119e-05   2.5645478e-04   8.4285394e-05  -6.8526168e-05   5.7226971e-05   8.5173062e-05   6.9596956e-05  -5.6165821e-05  -3.0508500e-05   1.1980781e-04   8.1317380e-05   7.4852597e-05   5.4571479e-05  -5.4918886e-05   9.8240534e-06   1.6854304e-05   6.7703459e-06   2.7944188e-05   4.6254304e-05   1.5122660e-04  -1.1671917e-05   3.5271790e-06   5.7281582e-05   3.2642684e-05  -8.6693320e-06  -1.5231954e-05   7.2045767e-05   2.2920182e-04   2.0100515e-05   4.8351256e-05   9.4277126e-05   1.3871728e-04   3.8756709e-05   1.5249788e-04   5.9580302e-05   9.5508343e-05   1.3652265e-04   1.6883240e-04   3.8354916e-05   4.8461725e-05   2.3230934e-05   8.6286773e-05  -6.3753146e-05  -1.2893270e-05   1.7404662e-05   2.0006590e-05  -3.8314648e-05   5.4257704e-05   1.6959497e-05  -4.7544781e-05  -4.1369194e-05  -5.5241655e-05  -7.1818189e-05   1.9898370e-05  -2.2787540e-05  -2.2925521e-05  -7.7782323e-05  -3.8155949e-05  -4.1764160e-06  -6.1515809e-05  -4.9547901e-05  -6.1803803e-05   4.3835341e-07  -7.7053419e-06   1.8379960e-05  -4.0033751e-05  -7.8268734e-05   1.3961276e-05  -2.7792049e-05  -6.6210452e-05   6.5777391e-05   3.8768431e-05  -3.4936841e-05   1.5071440e-05  -5.7449045e-05  -5.4987383e-05   4.6432673e-05  -2.7603888e-05  -1.5313726e-07  -1.6124596e-04  -1.0063015e-04  -4.7783270e-04  -4.3347654e-04  -2.0092085e-04  -5.8349102e-05  -1.0647831e-03  -1.9397349e-04  -1.9760542e-04  -2.0575633e-04   6.6177021e-05  -7.9580059e-07  -9.9070616e-04  -7.6336886e-05  -7.4312937e-05  -6.7475725e-05  -1.6061918e-04   1.4842038e-04   1.5358898e-04   4.7018035e-05  -4.3041299e-06  -2.8343429e-04  -1.8828409e-05  -3.3617794e-04  -1.2843012e-04   8.0819827e-05   1.9318863e-05  -1.0270466e-04   1.3840517e-04  -6.9125023e-05  -6.6058479e-04   1.7836039e-04   1.2350822e-04   2.2341418e-04   3.5208172e-05  -1.1342906e-04  -4.0958473e-04  -2.4859562e-04
  -1.0575198e-04  -1.7539846e-04  -5.3467792e-05  -6.0225692e-05  -5.0350521e-05  -4.0204129e-05  -2.4883364e-05  -3.7691979e-05  -3.3687724e-05  -4.0141657e-05  -6.0069912e-05  -6.0301004e-05   1.4381056e-05   7.4326197e-06  -1.7256388e-05  -7.1418876e-05  -1.2363904e-04  -1.2701472e-04  -1.2602334e-04  -1.5731582e-04  -1.1211463e-04  -5.8153826e-05  -5.4197963e-05  -9.3157023e-05  -1.5788006e-04  -5.5600737e-05  -4.2865123e-05  -5.7410939e-05  -8.6113029e-05  -2.8193470e-05   2.7153063e-05  -1.0670011e-04  -9.7157953e-05  -3.5911675e-05  -5.4933425e-05  -1.4888321e-06  -4.5858017e-05  -2.2245624e-05  -1.5758829e-04  -1.5253230e-04  -7.6466766e-05  -1.5075787e-04  -1.0489512e-04  -1.8090752e-04  -4.0170282e-04  -3.1218641e-04  -8.7413491e-07  -5.1010987e-05  -6.3291172e-05  -1.4136201e-04  -2.1683057e-04  -2.2443341e-04  -3.4167907e-04  -5.2349450e-05  -1.1931139e-04  -4.6610243e-05  -1.6578799e-04  -1.5394330e-04  -1.2326810e-04  -1.5959168e-04  -1.6685885e-04  -2.4575651e-04  -1.9895805e-04  -1.9141683e-04  -1.2769737e-04  -1.2305677e-04   3.2379386e-05  -1.3849488e-04  -3.2009454e-04  -9.9505947e-05  -5.7807889e-05   4.3288662e-05   1.4306152e-05  -3.8174662e-04  -1.8576711e-04  -1.0552682e-04  -8.4685235e-04  -9.7402143e-04  -3.1399455e-04  -4.0856629e-04  -3.2528405e-04  -3.9486467e-04  -3.2419049e-04  -3.0870949e-04  -6.2275988e-04  -3.1333793e-04  -8.0072478e-04  -6.0263159e-04   5.1163370e-06  -1.0500088e-04  -2.5656237e-04  -6.6639323e-04  -9.3502175e-04  -1.3209797e-03  -1.2266892e-03  -1.4018748e-03  -1.0730643e-03  -4.4716489e-04  -4.4569361e-04  -8.7577841e-04  -7.5777510e-04  -4.9088579e-04  -6.9681501e-04  -3.8060553e-04  -6.0611787e-04  -2.8286792e-04  -2.5519555e-04  -8.5292568e-04  -9.0284293e-04  -4.7111094e-04  -5.2655950e-04  -3.3895722e-04  -1.6779732e-04  -1.8552529e-04   9.2336424e-05   1.2663809e-04   4.2512419e-05   4.5039065e-05   3.3778186e-05   5.4455200e-05   9.4343749e-05   7.6761933e-05   7.8286482e-05   9.4350119e-06   4.8774040e-05   7.3519345e-05   1.1759243e-04   5.7094739e-05   4.1632146e-05   6.9696436e-05   1.1237168e-04   1.1679449e-04   1.2849345e-04   1.3889869e-04   1.1285666e-04   5.1738605e-05   6.9885294e-05   8.4872593e-05   1.2258416e-04   9.2247427e-05   7.5057641e-05   5.1233210e-05   8.4293354e-05   4.4200390e-05   7.1438445e-05   1.2364438e-04   1.3856810e-04   8.9262751e-05   8.4680283e-05   4.9101255e-05   9.8591416e-05   4.8647538e-05  -1.2076097e-05   2.7041617e-05  -1.8803627e-05  -5.1409435e-05  -3.2381394e-05   4.4977337e-05   1.5194657e-05   1.5121469e-05   4.7257364e-05   5.6278425e-06   1.8811879e-05   5.9801671e-05   1.5956491e-05   1.4015181e-05   1.7679985e-05   6.2561820e-05   8.4581779e-05   8.4268393e-05   9.5930340e-05   9.5160636e-05   8.5420796e-05  -5.8517695e-05   5.8336502e-05  -6.1922661e-05   3.8178692e-05  -2.2116106e-05  -1.9230599e-05  -3.7099299e-05   8.0096209e-05  -6.3119227e-06  -1.2965124e-04   4.8037571e-05   2.7958259e-05   8.7011841e-05   7.6104105e-05   3.2372610e-05   1.0181118e-05  -3.4229791e-05   5.5218015e-05   1.0784936e-04   1.4996978e-05   2.2923031e-05   5.3035586e-05   7.1667141e-05   2.0810235e-05   1.8717757e-06   5.3898203e-05   7.0943563e-05   7.9730073e-05   1.0346795e-04   1.6849078e-05   1.0024963e-05  -2.2265827e-06   4.1921622e-05   2.9129781e-05   6.8382922e-05   1.0965394e-04   1.5938054e-04   1.4251994e-04   6.8452938e-05   1.1883744e-04   3.7950744e-05   6.8879881e-05   1.2195697e-04   8.9098549e-05   6.3461209e-05   6.3978714e-05   2.6095274e-05   6.8752634e-05   1.0585190e-04   8.1893625e-05   7.9702073e-05   5.5900610e-05   1.1758425e-05   8.5080323e-05   5.3291999e-05  -1.6785424e-04   1.0694372e-04   2.8780902e-05   5.9377455e-05  -1.6818328e-05  -6.9065655e-05   1.1742335e-04   1.0454742e-04   2.2573634e-06  -1.2680523e-04  -2.2277766e-04  -1.5326066e-04  -1.1704951e-04   1.8303697e-05  -8.1037809e-06  -9.5171003e-05   1.7905894e-05  -8.4527281e-05  -2.5175830e-05   4.4374089e-05  -7.3997217e-06   9.1050607e-05   1.0018312e-04   2.2838495e-04   2.0160732e-04  -3.6231717e-05  -3.5298496e-05   4.4443252e-05   1.4260131e-04   1.2567126e-04   4.1260458e-04   5.3755248e-05  -1.3756447e-06  -2.6633522e-06   2.0094903e-04   3.2409213e-05   2.4380788e-04   5.5052881e-05  -5.5700630e-05   6.4796673e-05   9.1570852e-05   8.3549288e-05  -4.9969593e-05  -2.7432888e-05   1.1817632e-04   7.7508771e-05   7.4396314e-05   5.9780721e-05  -5.2330424e-05   1.0022808e-05   1.1002542e-05   1.5064843e-06   2.4655565e-05   4.8342158e-05   1.5786258e-04  -8.0272769e-06   8.8659206e-06   6.1539169e-05   3.5994835e-05  -2.1605447e-06  -1.4471444e-05   8.6335790e-05   2.3657047e-04   2.0260812e-05   4.5380444e-05   9.6000389e-05   1.3788926e-04   3.7340676e-05   1.4932999e-04   6.2512101e-05   9.3663561e-05   1.2547882e-04   1.6803405e-04   3.2784247e-05   4.7769497e-05   2.1459899e-05   8.7771147e-05  -6.9657968e-05  -1.7035933e-05   1.8227871e-05   1.7701530e-05  -4.2255557e-05   4.8962528e-05   1.3977702e-05  -5.7535315e-05  -4.6255841e-05  -6.0782601e-05  -8.0389992e-05   1.6651781e-05  -2.6373453e-05  -2.8939008e-05  -8.6185609e-05  -4.2053549e-05  -5.1036910e-06  -6.3377488e-05  -5.8260936e-05  -6.9401679e-05  -5.2472054e-06  -1.3650944e-05   2.3598635e-05  -4.5930141e-05  -8.5987160e-05   1.4800559e-05  -3.1816500e-05  -7.5550233e-05   7.2368354e-05   3.7881809e-05  -3.9074031e-05   7.7824516e-06  -6.2658134e-05  -6.4175522e-05   4.8149888e-05  -3.1567252e-05  -3.6048420e-06  -1.6812338e-04  -1.0989270e-04  -4.7441672e-04  -4.2645617e-04  -2.0701859e-04  -6.4417278e-05  -1.0487530e-03  -1.9101404e-04  -1.9613114e-04  -2.1155222e-04   3.9405382e-05  -1.1083299e-05  -9.8503562e-04  -8.0928662e-05  -7.4668944e-05  -6.9664635e-05  -1.5420109e-04   1.3232366e-04   1.4599506e-04   5.5391396e-05   3.6809790e-06  -2.8216656e-04  -2.9423549e-05  -3.2337745e-04  -1.2771252e-04   6.5792897e-05   2.9647421e-06  -1.0848037e-04   1.3929616e-04  -7.4731563e-05  -6.4988604e-04   1.7418985e-04   1.1410346e-04   2.2357168e-04   4.0468049e-05  -1.1770662e-04  -4.1135255e-04  -2.4647145e-04
