   5.2855850e-05   5.6359099e-05   3.1019485e-05   7.9507823e-05   6.3868533e-05   1.1715304e-04   9.7902535e-05   5.9925135e-05   1.6495595e-05   5.7111692e-05   1.1286119e-04   9.6436881e-05   1.3867110e-04   1.2006175e-04   6.2669032e-05   7.4474754e-05   4.2196045e-05   8.5848364e-05   7.0550202e-05   9.5609215e-05   1.0581546e-04   7.1052198e-05   1.4941810e-04   5.3472868e-05   1.0320321e-04   1.1418092e-04   8.3289045e-05   6.6933198e-05   7.4288392e-05   5.7118346e-05   8.1471409e-05   1.0100847e-04   7.7089805e-05   1.4638808e-05   5.0262794e-05   3.3013924e-05   1.1414029e-04   5.5320000e-05   9.5877119e-06   4.4062352e-05   1.9223728e-05   7.1823529e-05   5.6018453e-05   3.9530613e-05   3.8802136e-05   1.7504274e-06  -2.5465045e-05  -2.0331102e-05  -8.2483141e-05  -2.1012647e-05   3.9864811e-05   6.3102409e-05  -9.9367348e-06  -5.0360042e-05  -5.2575362e-05  -1.9176744e-05  -1.5169893e-05   8.5647761e-06   2.7850311e-05   1.8440267e-05   5.4209980e-05   5.8952776e-05   6.6155769e-05   4.6193093e-05  -6.1839018e-06   3.3752642e-05   1.1969524e-04  -1.7546212e-05  -8.9290753e-05   9.4034759e-05   4.0686571e-05   3.6182883e-06   5.4206636e-05  -3.4550136e-05  -3.4127680e-05   6.6726180e-05  -4.0148676e-05   1.0857432e-04  -1.7491140e-04   1.3251510e-04   9.8599904e-05  -3.0709991e-05   8.1396940e-06   2.7835629e-05  -3.6217343e-05   3.3354154e-06  -1.0622641e-05  -5.5683786e-05   7.4636744e-05   1.4412394e-05   4.0730552e-05  -2.2844306e-04  -2.4405298e-04  -2.0605695e-04  -1.2173206e-04  -5.4919862e-05  -4.8681128e-06   1.3644067e-05   9.5142993e-05   1.1557119e-05  -6.0227758e-05   9.8047688e-06   4.5585902e-05   1.3092653e-05  -8.3718575e-06  -9.9784486e-05   9.0498657e-05   2.6273844e-05   2.4501108e-06  -3.7088550e-05   4.6550401e-06  -1.1623605e-04   2.1010751e-04   2.0908806e-04  -7.5679794e-05  -2.3423889e-05  -5.0765336e-05  -5.9687291e-05  -7.3968277e-06  -3.2453971e-05   6.4337380e-05   2.3544088e-05  -2.2484378e-05  -6.1887712e-05  -6.8788822e-05  -7.6490045e-05   7.8457999e-06   3.0587776e-05   2.9244510e-06  -8.4154565e-05  -5.3634329e-05  -4.6921066e-05  -7.3452071e-05  -6.3387069e-05  -5.0005782e-05  -1.9238886e-05   3.1805219e-05  -3.1360186e-05  -1.7481564e-05  -5.3985644e-05  -7.6949371e-05  -6.3303412e-05  -4.7603266e-05   2.4988603e-05   6.6701189e-05  -4.9586468e-05  -5.0854461e-05  -5.1022623e-05  -5.1702779e-05   1.4970003e-05   8.6114007e-05   9.8970265e-06  -2.8131621e-05   2.2221589e-06   7.3743716e-05   2.0929542e-05   7.4258519e-05   6.5881221e-05  -2.5105675e-05  -7.9259011e-05  -2.1932200e-06   6.6100606e-05  -1.6224724e-05  -2.3690169e-05   1.4929771e-04   3.4457711e-05  -1.4861486e-05   4.0417079e-05   4.5184527e-05   3.7640242e-06  -5.4232525e-06  -3.9389593e-05   1.8207267e-05   3.5088430e-05   1.2995605e-04   7.3697750e-05   1.6747912e-04   7.1686877e-05   2.4534697e-05   8.1789039e-05   1.2842501e-04  -3.6602666e-05  -2.7104329e-05   1.2672204e-04   1.0836952e-04   4.2491089e-05   9.4014993e-05   1.2650471e-05  -1.8872084e-05   5.6979517e-05  -1.9815820e-05   1.8684597e-05   2.4796943e-07  -8.0814851e-05   5.6211255e-06  -2.4341877e-05   9.3199896e-05   5.1779154e-05  -3.1695370e-05  -3.9563785e-05  -8.0903204e-05  -3.6851109e-05  -4.3641025e-05   7.5608763e-05   2.3451430e-05  -7.4369479e-05  -2.9142723e-05  -3.9795491e-05  -4.8171819e-05  -2.2102719e-05  -3.3732504e-05  -1.5172919e-05  -5.1444274e-06  -2.1439066e-05  -2.2937540e-05  -4.1654367e-05  -4.5327995e-05  -2.3548173e-05  -9.7075069e-06   4.4074882e-05   8.1550297e-05  -3.1481287e-05  -1.2898464e-05  -2.0108664e-05  -1.6613898e-05   3.6010601e-05   3.4654750e-05   8.3058717e-06  -5.6233052e-05  -2.5834195e-05   2.1949269e-04  -5.2187658e-05  -2.1382073e-05  -4.5311069e-05  -1.3373243e-04  -7.7804555e-05  -3.4850243e-05  -6.1601627e-05  -9.2949285e-05  -1.1245543e-04  -1.2069589e-04  -1.3042295e-04  -6.0745626e-05  -7.5253817e-05  -3.7584478e-05  -5.3776217e-05  -5.7588662e-05  -5.5728253e-05  -3.9042019e-05  -6.0025977e-05  -1.6417207e-05  -6.0737033e-05   1.0555120e-05  -1.8160937e-05  -9.9034768e-05  -7.5184707e-05   4.5947126e-05   2.3653305e-05   2.9618060e-05  -4.2880450e-05   1.5235292e-05  -4.3085392e-05  -4.1161975e-05   9.0038454e-06   1.7636106e-05   8.1633771e-06  -1.4864876e-04  -8.0714215e-05  -1.2671810e-04  -7.6878097e-05  -3.2319947e-05  -1.6509117e-04  -1.1760304e-04  -7.8900005e-05  -1.7220710e-04  -1.6605610e-04  -2.7292001e-04  -2.0727621e-04  -1.4485787e-04  -1.6892123e-04  -9.2824329e-05  -2.8699851e-04  -1.7292703e-04  -1.7913472e-04  -2.0763485e-04  -2.1763509e-04  -1.8003684e-04  -1.7432662e-04  -1.9231172e-04  -1.3436709e-04  -1.0658953e-04  -2.1837794e-04  -1.7972445e-04  -1.3180189e-04  -1.5417918e-04  -2.7500792e-05  -9.5366789e-05  -1.3777594e-04  -9.3065488e-05  -1.1188044e-04  -1.1560889e-04  -6.1038557e-05  -8.4802809e-05  -1.3635568e-04  -1.0276605e-05   1.9755988e-05   4.6068831e-05   2.2193246e-05   8.5804767e-06  -8.2497764e-06  -1.8192197e-04  -3.1920991e-04  -1.0761015e-04   5.6834843e-05  -8.0882352e-05  -5.7614840e-06   6.0693736e-05  -1.4990108e-04  -1.3654432e-04  -5.5798412e-05  -1.9415319e-06   1.3340544e-05   2.0134689e-06   1.6216500e-05  -2.8334871e-06   3.9894122e-05   1.5194099e-04   8.6841389e-06   4.2505451e-05   9.4662108e-05   1.1642440e-05   3.6939316e-05   2.2994194e-05  -2.7409752e-04  -2.5126885e-04   8.4821037e-05   8.1231424e-05   2.2816996e-05   2.6956191e-05  -1.7053059e-04  -3.1881839e-04  -1.1108242e-04   1.8191360e-04   1.4469402e-04  -4.9721352e-05   1.2421108e-04   3.9834389e-05   1.3578259e-04   7.7163442e-05  -1.2395086e-05  -3.9459055e-05   1.1566473e-04   1.2142255e-04   1.7358760e-04  -5.7275244e-05   1.7344200e-06   4.1454787e-05   6.6139589e-05   7.0499160e-05   6.2743177e-05   9.3074553e-05   1.2983236e-04   6.1475081e-05   8.1060563e-05  -1.1252057e-05   9.8254836e-05   3.3975241e-05   5.9379321e-05   8.9722109e-05   7.6826721e-05   2.6538239e-05   2.0947250e-05   2.2744947e-05   1.2498403e-04   1.0939013e-04   5.2710287e-05   7.3876517e-05  -3.2301434e-05  -6.5757900e-05   7.9142703e-05  -1.2813646e-04  -1.3518442e-04  -3.4610178e-05  -4.8017780e-04   2.4945502e-04  -8.3609489e-05  -6.2246574e-05   5.4998219e-04  -1.5527603e-04  -2.2407656e-04  -1.2765729e-04  -6.7734902e-05   4.6855213e-04  -1.1942281e-04   2.7220900e-05  -6.8137839e-05  -9.6059739e-05  -1.7031227e-05  -1.2349494e-04  -1.0800653e-04   8.8405747e-05   2.8060004e-04  -3.0293365e-04   8.7462851e-05   5.0019096e-04  -2.0754486e-04  -1.6108027e-04   3.3116473e-05  -2.0836937e-04   9.8389725e-04   6.8651252e-04  -1.5706705e-04  -3.2469634e-04  -3.4366094e-04   5.8576688e-05   2.5075106e-04   1.8252227e-03   5.2354114e-04   6.7845073e-05   4.2560921e-06  -3.5969969e-04   1.8793785e-04  -8.7170782e-05   3.5912600e-05  -1.7081733e-04  -9.4729988e-05  -1.5842101e-04   9.4545926e-05  -7.6107087e-06   1.7293325e-04  -1.1773992e-04  -1.1169537e-04  -9.1060738e-05   5.5291811e-05   1.4370280e-04   8.4735742e-06   1.7197078e-04   1.3664129e-04   2.9605702e-05  -1.3754531e-05   4.1529079e-05   6.7951707e-05   6.1817715e-05   1.6032721e-05   1.2293495e-04   6.3379082e-05   1.2018442e-04   1.6475230e-05  -2.5460075e-05   2.1414830e-04   1.2625587e-04   4.4112415e-05   5.9207959e-05  -8.4094184e-05  -3.7440261e-05  -2.0882033e-04
   5.0162887e-05   5.8905971e-05   3.3126542e-05   8.1574251e-05   6.9730388e-05   1.2445493e-04   1.1343928e-04   6.7127391e-05   1.4602020e-05   5.6757515e-05   1.1359392e-04   9.6750034e-05   1.5482844e-04   1.3612940e-04   6.6528920e-05   7.4405865e-05   4.1201353e-05   8.8374019e-05   6.9063010e-05   9.7057661e-05   1.1051821e-04   7.6314140e-05   1.6442887e-04   5.6764622e-05   1.1391165e-04   1.2017012e-04   8.4915324e-05   7.0772767e-05   8.2007358e-05   6.5630350e-05   9.4761123e-05   1.0829220e-04   8.2781189e-05   1.3741763e-05   5.4873636e-05   3.6572669e-05   1.3086213e-04   6.4647880e-05   1.5960180e-05   5.3976462e-05   1.7303460e-05   8.1623938e-05   5.6550562e-05   4.2749954e-05   2.7537128e-05  -3.4820229e-06  -3.0443818e-05  -1.7514144e-05  -9.6734200e-05  -2.0898221e-05   4.0170776e-05   5.7639782e-05  -2.5498386e-05  -5.6301816e-05  -5.3504841e-05  -2.6764839e-05  -1.6462235e-05   6.4298714e-06   2.5065619e-05   1.3478507e-05   5.0845721e-05   6.1812228e-05   6.2719213e-05   4.1482340e-05  -4.3968024e-06   3.3812313e-05   1.3356788e-04  -2.3132685e-05  -1.1483925e-04   9.7370848e-05   4.1230179e-05   7.6634557e-06   5.7852398e-05  -5.1526815e-05  -6.8117108e-05   5.5269477e-05  -3.8427126e-05   1.2006179e-04  -1.6372322e-04   1.5758451e-04   1.1911395e-04  -1.5721067e-05   4.2211854e-05   3.9805183e-05  -2.2450852e-05   3.1177711e-05   6.9409240e-07  -4.1903996e-05   1.4198342e-04   3.3056744e-05   6.0501030e-05  -2.3401615e-04  -2.4729875e-04  -2.2501862e-04  -1.1848755e-04  -4.0076253e-05   1.0113550e-05   2.0060502e-05   1.3650475e-04   2.3956813e-05  -3.8532220e-05   2.8390413e-05   5.5810325e-05   1.8621820e-05   1.7544463e-05  -8.8807423e-05   1.3135947e-04   6.4676858e-05   3.9355121e-05  -2.9758576e-05   1.1591480e-05  -1.2741978e-04   2.4005592e-04   2.2777691e-04  -9.3390131e-05  -3.3765344e-05  -5.6777414e-05  -7.6866369e-05  -1.6651158e-05  -4.7714711e-05   6.4645583e-05   2.3784287e-05  -2.7039363e-05  -7.8569096e-05  -8.6766862e-05  -9.5320154e-05  -3.5746707e-06   2.5417854e-05   8.9588390e-08  -1.0299406e-04  -6.7477965e-05  -6.1870250e-05  -8.9727324e-05  -8.0251057e-05  -6.3849534e-05  -3.2257862e-05   1.8967298e-05  -4.1805040e-05  -3.2234492e-05  -7.1689414e-05  -9.0987089e-05  -7.7828638e-05  -5.9796258e-05   2.2986126e-05   7.1405571e-05  -6.4974760e-05  -6.3915523e-05  -5.8822339e-05  -6.2490838e-05   1.3735729e-05   9.5687045e-05   3.3266568e-06  -3.8369363e-05  -6.4226069e-06   7.6562374e-05   1.4484304e-05   7.5132137e-05   6.2938474e-05  -2.4384177e-05  -9.2147207e-05  -4.7011282e-06   6.7319204e-05  -2.7210220e-05  -3.7637287e-05   1.6328578e-04   3.8422509e-05  -1.9046049e-05   3.5929117e-05   4.2061951e-05  -5.5519276e-06  -1.8286913e-05  -5.5517748e-05   9.4360445e-06   3.2349717e-05   1.3949720e-04   7.3987072e-05   1.7261005e-04   6.7661087e-05   1.7047251e-05   8.0666858e-05   1.2938139e-04  -4.7584745e-05  -2.9944583e-05   1.2429349e-04   1.0077748e-04   4.1840163e-05   9.3765222e-05   7.9439780e-06  -2.7826842e-05   5.4102810e-05  -2.3599974e-05   2.0188534e-05  -1.1190825e-06  -9.5452699e-05   1.9362429e-06  -3.4162671e-05   9.0233450e-05   4.9390395e-05  -3.7241718e-05  -5.0330841e-05  -9.8125555e-05  -4.6622861e-05  -5.7253017e-05   7.0551058e-05   1.9966027e-05  -8.8240467e-05  -3.6679741e-05  -4.8964110e-05  -5.6627782e-05  -3.0041716e-05  -4.1693789e-05  -2.1474765e-05  -1.0189461e-05  -2.5420812e-05  -3.2082857e-05  -5.0897833e-05  -5.2435305e-05  -2.9556277e-05  -1.4232810e-05   4.1504572e-05   7.7234693e-05  -3.8405998e-05  -1.9639227e-05  -2.2311319e-05  -2.1107045e-05   3.3919088e-05   2.3742257e-05   5.3728353e-06  -7.9627366e-05  -4.2785576e-05   2.4831177e-04  -5.6254500e-05  -2.7071639e-05  -6.8540525e-05  -1.3673730e-04  -9.5525929e-05  -3.6045134e-05  -6.7360468e-05  -1.2170730e-04  -1.4632510e-04  -1.2229455e-04  -1.3292360e-04  -6.9630669e-05  -8.5043196e-05  -5.2238155e-05  -7.7539393e-05  -8.0338621e-05  -8.1508939e-05  -5.3496597e-05  -7.5490192e-05  -3.1708284e-05  -7.0410855e-05   7.3215385e-06  -4.0553137e-05  -1.2614973e-04  -9.3452294e-05   4.2132934e-05   5.2531796e-06   2.6339093e-05  -7.7561993e-05  -7.7908659e-06  -5.3895446e-05  -5.7708582e-05   4.1776881e-06   1.4496741e-05   1.2580560e-05  -1.7134089e-04  -1.0028987e-04  -1.4739730e-04  -1.0288567e-04  -4.0336181e-05  -1.9351587e-04  -1.4560795e-04  -9.0409984e-05  -1.9796724e-04  -1.8988951e-04  -3.0729610e-04  -2.3967256e-04  -1.6115151e-04  -2.0467550e-04  -1.0910437e-04  -3.2395949e-04  -2.0091316e-04  -2.0186645e-04  -2.3517475e-04  -2.4735721e-04  -2.1256406e-04  -1.9280843e-04  -2.3069829e-04  -1.4936448e-04  -1.2044787e-04  -2.4995762e-04  -2.0289960e-04  -1.5147091e-04  -1.7544178e-04  -3.2650243e-05  -1.1699307e-04  -1.6700065e-04  -1.1364745e-04  -1.2275515e-04  -1.3193165e-04  -7.3571357e-05  -1.0067592e-04  -1.5710768e-04  -2.2793624e-05   2.0409692e-05   4.7793093e-05   1.4617709e-05   6.4260514e-06  -1.4195416e-05  -1.9878115e-04  -3.5571854e-04  -1.1528960e-04   6.1688964e-05  -8.9263983e-05  -9.1033232e-06   7.0458457e-05  -1.6333582e-04  -1.5269847e-04  -6.4710601e-05  -1.0266388e-05   1.3161165e-05   4.0999173e-06   1.8856390e-05  -8.4076876e-07   4.0041995e-05   1.7077350e-04   2.9756175e-06   4.3510609e-05   1.0408426e-04   8.2969486e-06   3.2909249e-05   1.0656929e-05  -3.0398976e-04  -2.7425550e-04   8.1265744e-05   7.8780862e-05   2.2426611e-05   1.8950117e-05  -1.9266383e-04  -3.4177025e-04  -1.2518840e-04   2.0857168e-04   1.6760061e-04  -5.1203577e-05   1.3137322e-04   4.3483975e-05   1.4606527e-04   8.7171406e-05  -1.1342182e-05  -5.0289619e-05   1.2567007e-04   1.2711241e-04   1.9150822e-04  -7.1041172e-05  -7.1939357e-06   4.0937470e-05   6.9169559e-05   7.4198673e-05   7.3656703e-05   1.1277396e-04   1.4024392e-04   6.3380034e-05   8.2573788e-05  -3.4119294e-05   1.0625754e-04   3.4240602e-05   6.0459095e-05   1.0071152e-04   8.3690365e-05   2.4882524e-05   4.2827760e-05   2.1767549e-05   1.3665407e-04   1.2155616e-04   6.2042009e-05   8.6950226e-05  -3.1688234e-05  -6.6985807e-05   1.0889543e-04  -1.1271873e-04  -1.2036976e-04   4.7636956e-06  -5.1826208e-04   2.9513133e-04  -5.7254515e-05   1.2946106e-04   7.7258423e-04  -1.2050690e-04  -2.2025534e-04  -1.1213203e-04  -2.7564864e-05   5.6639007e-04   3.2289633e-05   1.1364106e-04  -5.0593788e-05  -9.2698538e-05   1.7691156e-05  -8.7626269e-05  -7.8994116e-05   1.2274185e-04   3.5579150e-04  -2.7115821e-04   1.3616689e-04   6.2403882e-04  -1.6940843e-04  -1.6988310e-04   7.6695180e-05  -2.0137485e-04   1.3248940e-03   9.6607926e-04  -1.2330020e-04  -3.2206387e-04  -3.6961329e-04   1.2035812e-04   3.9658272e-04   2.3536771e-03   7.1241874e-04   8.7020460e-05   8.4812661e-06  -3.8447892e-04   2.1457294e-04  -8.5736828e-05   4.2023120e-05  -2.2659042e-04  -1.0143972e-04  -1.7953005e-04   1.1131673e-04  -2.8019804e-05   1.9345033e-04  -1.1242211e-04  -1.4648717e-04  -1.1401105e-04   6.7064458e-05   1.5705534e-04   1.1915342e-05   2.0607112e-04   1.5016424e-04   3.7239385e-05  -1.3745157e-05   4.8339157e-05   8.7803634e-05   9.2101509e-05   2.1709170e-05   1.4264674e-04   7.7024307e-05   1.5828991e-04   1.1965344e-05  -4.6623260e-05   2.5672301e-04   1.5469796e-04   5.4135687e-05   8.5220599e-05  -9.8570651e-05  -4.3728515e-05  -2.3628087e-04
   4.5154098e-05   5.9918175e-05   3.4478231e-05   8.1232251e-05   7.4353310e-05   1.2889369e-04   1.2739687e-04   7.2574459e-05   1.1735497e-05   5.4619520e-05   1.1029168e-04   9.3769306e-05   1.6899680e-04   1.5057640e-04   6.8299718e-05   7.1814485e-05   3.9216971e-05   8.8309260e-05   6.4948346e-05   9.5567106e-05   1.1233975e-04   8.0096650e-05   1.7703612e-04   5.8816928e-05   1.2293263e-04   1.2322705e-04   8.3858780e-05   7.2882058e-05   8.8704967e-05   7.3278555e-05   1.0680158e-04   1.1357073e-04   8.7060882e-05   1.2300739e-05   5.8550425e-05   3.9554289e-05   1.4523085e-04   7.3292469e-05   2.2041455e-05   6.3332842e-05   1.2912998e-05   9.1678332e-05   5.5932224e-05   4.5198244e-05   1.1109874e-05  -1.1074627e-05  -3.5284923e-05  -1.3192326e-05  -1.0950175e-04  -2.0352078e-05   4.0582551e-05   4.8982714e-05  -4.3956186e-05  -6.1154331e-05  -5.2147170e-05  -3.4401917e-05  -1.7501366e-05   3.8874510e-06   2.1645134e-05   8.0072148e-06   4.7307453e-05   6.3664387e-05   5.6971797e-05   3.5326259e-05  -2.0587694e-06   3.2922532e-05   1.4730294e-04  -3.0545678e-05  -1.4337317e-04   9.8192515e-05   4.1077715e-05   1.2121454e-05   6.0039264e-05  -7.0979371e-05  -1.0922838e-04   3.8290079e-05  -3.0816387e-05   1.3147747e-04  -1.4389067e-04   1.8302344e-04   1.3908524e-04   4.9345908e-06   7.2700932e-05   4.5848965e-05  -4.7856714e-06   6.4307140e-05   1.3161533e-05  -1.8480622e-05   2.1922236e-04   4.8107150e-05   7.7241897e-05  -2.3444654e-04  -2.4161134e-04  -2.3934370e-04  -1.0591214e-04  -1.9116053e-05   2.6564271e-05   2.7267381e-05   1.8403164e-04   4.0972819e-05  -8.6074288e-06   5.3588262e-05   6.8761195e-05   2.6215177e-05   5.7133734e-05  -7.5456783e-05   1.6965930e-04   1.1400378e-04   8.7376412e-05  -1.8261457e-05   2.2242448e-05  -1.4014377e-04   2.5238276e-04   2.4016414e-04  -1.1134616e-04  -4.5311594e-05  -6.2283267e-05  -9.4343090e-05  -2.7601754e-05  -6.4689165e-05   6.1747217e-05   2.2800921e-05  -3.1369498e-05  -9.5731418e-05  -1.0517414e-04  -1.1470283e-04  -1.8004952e-05   1.7627471e-05  -3.6203903e-06  -1.2201111e-04  -8.1915570e-05  -7.7657151e-05  -1.0617505e-04  -9.7850370e-05  -7.8394575e-05  -4.7169045e-05   2.2804743e-06  -5.3267690e-05  -4.9476432e-05  -9.0404319e-05  -1.0440457e-04  -9.2641831e-05  -7.2273569e-05   1.9639467e-05   7.4071991e-05  -8.1475227e-05  -7.7349217e-05  -6.5799073e-05  -7.3295831e-05   1.1645870e-05   1.0258302e-04  -4.5304024e-06  -4.9747276e-05  -1.6602309e-05   7.7579255e-05   6.6204747e-06   7.4008261e-05   5.7302829e-05  -2.3239852e-05  -1.0468637e-04  -7.6610400e-06   6.5751057e-05  -3.8602976e-05  -5.2986728e-05   1.7410185e-04   4.0952239e-05  -2.3579070e-05   2.8947423e-05   3.6644550e-05  -1.6058281e-05  -3.2925384e-05  -7.2712739e-05  -8.6804340e-07   2.8683396e-05   1.4625807e-04   7.1895842e-05   1.7323890e-04   6.0426127e-05   7.2980456e-06   7.6490180e-05   1.2600788e-04  -6.0311957e-05  -3.4267446e-05   1.1703125e-04   8.7860691e-05   3.9345047e-05   9.0497175e-05   1.4396634e-06  -3.8463635e-05   4.7589035e-05  -2.7442895e-05   2.0704212e-05  -2.9063706e-06  -1.0970180e-04  -2.9113506e-06  -4.5122237e-05   8.3341384e-05   4.4723560e-05  -4.2434640e-05  -6.1258992e-05  -1.1547037e-04  -5.6897104e-05  -7.1520127e-05   6.2110799e-05   1.5257756e-05  -1.0145899e-04  -4.4500203e-05  -5.8525645e-05  -6.5190548e-05  -3.8914407e-05  -4.9814285e-05  -2.8286956e-05  -1.6358142e-05  -2.9462608e-05  -4.1999346e-05  -6.0402764e-05  -5.9307095e-05  -3.5733781e-05  -1.9544233e-05   3.6704602e-05   6.9296406e-05  -4.6077682e-05  -2.7493591e-05  -2.4363495e-05  -2.5864384e-05   3.0089464e-05   1.0264810e-05   1.6658919e-06  -1.0433323e-04  -6.0560908e-05   2.7537927e-04  -5.8177077e-05  -3.1986756e-05  -9.4263915e-05  -1.3299804e-04  -1.1210169e-04  -3.5886498e-05  -7.1858275e-05  -1.5293393e-04  -1.8235379e-04  -1.1979876e-04  -1.3081289e-04  -7.7412065e-05  -9.2864781e-05  -6.9069977e-05  -1.0364012e-04  -1.0511381e-04  -1.0988447e-04  -6.9177762e-05  -9.1732298e-05  -5.0259629e-05  -7.9609725e-05   1.3173746e-06  -6.7285219e-05  -1.5496272e-04  -1.1350579e-04   3.5950746e-05  -1.5645641e-05   2.4328102e-05  -1.1811223e-04  -3.6691537e-05  -6.5949197e-05  -7.7053545e-05  -1.7273190e-06   1.1513773e-05   1.9580963e-05  -1.9351004e-04  -1.1991899e-04  -1.6810870e-04  -1.3227523e-04  -4.9613678e-05  -2.2136327e-04  -1.7518971e-04  -1.0105527e-04  -2.2184707e-04  -2.1291283e-04  -3.3851535e-04  -2.7046907e-04  -1.7519963e-04  -2.4136683e-04  -1.2522678e-04  -3.5774729e-04  -2.2894444e-04  -2.2308051e-04  -2.6023787e-04  -2.7454262e-04  -2.4463635e-04  -2.0848381e-04  -2.6887886e-04  -1.6310462e-04  -1.3414299e-04  -2.8021478e-04  -2.2409154e-04  -1.7096026e-04  -1.9585892e-04  -3.7995287e-05  -1.4008948e-04  -1.9784880e-04  -1.3530180e-04  -1.3252837e-04  -1.4800988e-04  -8.6994053e-05  -1.1578600e-04  -1.7690671e-04  -3.6870518e-05   2.0635549e-05   4.8589887e-05   3.8410449e-06   3.4046512e-06  -2.1145470e-05  -2.1346197e-04  -3.8874703e-04  -1.2071898e-04   6.3254419e-05  -9.6100691e-05  -1.3154731e-05   7.7119740e-05  -1.7650319e-04  -1.6661331e-04  -7.5197345e-05  -2.1065830e-05   1.1391907e-05   5.6332037e-06   2.0878293e-05   4.6178863e-07   3.7524701e-05   1.8530485e-04  -4.6472427e-06   4.2656988e-05   1.1051635e-04   3.2417105e-06   2.6719059e-05  -5.6958601e-06  -3.3189527e-04  -2.9340592e-04   7.4309179e-05   7.2792002e-05   2.1278715e-05   9.4223474e-06  -2.1383014e-04  -3.5844021e-04  -1.3743133e-04   2.3326491e-04   1.8883108e-04  -5.0675992e-05   1.3545352e-04   4.5372297e-05   1.5316433e-04   9.2647503e-05  -1.2935903e-05  -6.1830855e-05   1.3344167e-04   1.3027326e-04   2.0657323e-04  -8.7211752e-05  -2.1441948e-05   3.7445539e-05   7.1182220e-05   7.6698567e-05   8.4438636e-05   1.3267582e-04   1.4807927e-04   6.3676010e-05   8.1642142e-05  -6.0379027e-05   1.1209173e-04   3.4428556e-05   5.9276296e-05   1.1062705e-04   8.9539541e-05   2.2329078e-05   6.4665412e-05   1.6615818e-05   1.4699904e-04   1.3245424e-04   7.1884921e-05   1.0013350e-04  -3.1396863e-05  -6.9645664e-05   1.4083501e-04  -8.7624304e-05  -9.6010726e-05   5.2242055e-05  -5.4030078e-04   3.4024707e-04  -2.3759324e-05   3.5419245e-04   1.0098029e-03  -7.2776272e-05  -2.0491332e-04  -8.9341925e-05   2.1645872e-05   6.6744748e-04   2.1325737e-04   2.0827717e-04  -2.4881747e-05  -8.3478270e-05   6.1296814e-05  -3.8451505e-05  -3.9148819e-05   1.6292481e-04   4.3183652e-04  -2.2285982e-04   1.9190567e-04   7.4770181e-04  -1.1545359e-04  -1.6770916e-04   1.3014052e-04  -1.7937590e-04   1.6877127e-03   1.2670363e-03  -7.4634814e-05  -3.0200050e-04  -3.8208080e-04   1.8980778e-04   5.5709896e-04   2.9069693e-03   9.1141748e-04   1.0643696e-04   1.3032185e-05  -3.9705539e-04   2.4012126e-04  -8.0762610e-05   4.8885574e-05  -2.8375292e-04  -1.0540457e-04  -1.9570356e-04   1.2799996e-04  -4.9639885e-05   2.1181009e-04  -9.7567178e-05  -1.8094944e-04  -1.3647700e-04   8.0664848e-05   1.6910423e-04   1.7815183e-05   2.4092346e-04   1.6274279e-04   4.6990649e-05  -1.2014775e-05   5.6191540e-05   1.0895195e-04   1.2737306e-04   2.9896255e-05   1.6239329e-04   9.2100761e-05   1.9983005e-04   4.5382791e-06  -7.2330630e-05   3.0027461e-04   1.8470305e-04   6.5237362e-05   1.1410173e-04  -1.1130557e-04  -5.2236947e-05  -2.6063281e-04
   3.7940976e-05   5.9372022e-05   3.5053053e-05   7.8495627e-05   7.7624244e-05   1.3038028e-04   1.3925306e-04   7.5872112e-05   7.9490447e-06   5.0792745e-05   1.0302221e-04   8.7588306e-05   1.8085291e-04   1.6298029e-04   6.7896697e-05   6.6750915e-05   3.6311645e-05   8.5669998e-05   5.8352445e-05   9.1238355e-05   1.1127653e-04   8.2311492e-05   1.8706565e-04   5.9576434e-05   1.3006448e-04   1.2332112e-04   8.0158432e-05   7.3164678e-05   9.4169517e-05   7.9659838e-05   1.1717860e-04   1.1677054e-04   8.9856231e-05   1.0373971e-05   6.1178470e-05   4.1837025e-05   1.5661897e-04   8.0869801e-05   2.7307825e-05   7.1709417e-05   5.9361624e-06   1.0186419e-04   5.4525304e-05   4.6807701e-05  -1.0575857e-05  -2.1028944e-05  -3.9860439e-05  -7.7584948e-06  -1.2031474e-04  -1.9648389e-05   4.1416096e-05   3.7387749e-05  -6.4864233e-05  -6.4891412e-05  -4.8609642e-05  -4.1675803e-05  -1.8310520e-05   1.0725796e-06   1.7944037e-05   2.4775576e-06   4.4350977e-05   6.4746696e-05   4.9384844e-05   2.8240843e-05   6.7494678e-07   3.1135751e-05   1.6105149e-04  -3.9860214e-05  -1.7467784e-04   9.6740128e-05   4.0447649e-05   1.6762809e-05   6.0791982e-05  -9.2406741e-05  -1.5708583e-04   1.6063567e-05  -1.6185280e-05   1.4313607e-04  -1.1631124e-04   2.0811670e-04   1.5778242e-04   3.1057301e-05   9.4645460e-05   4.3235994e-05   1.5915316e-05   1.0156244e-04   2.5987475e-05   1.5219104e-05   3.0333838e-04   5.6682754e-05   8.8867941e-05  -2.3044825e-04  -2.2727218e-04  -2.4841999e-04  -8.3236265e-05   7.6936970e-06   4.3540056e-05   3.5205960e-05   2.3694695e-04   6.2862115e-05   2.9125746e-05   8.5968533e-05   8.4959048e-05   3.6315469e-05   1.1106275e-04  -6.1833615e-05   2.0198414e-04   1.7377449e-04   1.4620336e-04  -2.5297741e-06   3.7246452e-05  -1.5513463e-04   2.4330293e-04   2.4556744e-04  -1.2903160e-04  -5.7767208e-05  -6.7290327e-05  -1.1147000e-04  -3.9917099e-05  -8.2892197e-05   5.5342394e-05   2.0405567e-05  -3.5361359e-05  -1.1281763e-04  -1.2337736e-04  -1.3410208e-04  -3.5136589e-05   7.2070299e-06  -8.2101341e-06  -1.4064664e-04  -9.6519934e-05  -9.3771604e-05  -1.2233965e-04  -1.1569110e-04  -9.3218876e-05  -6.3518643e-05  -1.7788697e-05  -6.5491847e-05  -6.8683950e-05  -1.0952601e-04  -1.1677183e-04  -1.0729999e-04  -8.4612272e-05   1.4993441e-05   7.4354107e-05  -9.8623132e-05  -9.0727399e-05  -7.1706171e-05  -8.3809354e-05   8.7444295e-06   1.0620391e-04  -1.3307120e-05  -6.2130786e-05  -2.8008634e-05   7.6882472e-05  -2.4339598e-06   7.1050516e-05   4.9233816e-05  -2.2148882e-05  -1.1667611e-04  -1.1030684e-05   6.1309764e-05  -4.9935826e-05  -6.9287739e-05   1.8137678e-04   4.1564104e-05  -2.8472061e-05   1.9677206e-05   2.9135648e-05  -2.7352664e-05  -4.8782312e-05  -9.0374789e-05  -1.2209876e-05   2.4364080e-05   1.5023766e-04   6.7542403e-05   1.6965975e-04   5.0239449e-05  -4.4281055e-06   6.9417967e-05   1.1859206e-04  -7.4669903e-05  -4.0556271e-05   1.0536197e-04   7.0167782e-05   3.5060475e-05   8.4484437e-05  -6.8191980e-06  -5.0713949e-05   3.7394076e-05  -3.1108082e-05   2.0177076e-05  -5.1348844e-06  -1.2312105e-04  -8.7958916e-06  -5.6894672e-05   7.2948877e-05   3.8119492e-05  -4.7082682e-05  -7.1874848e-05  -1.3238022e-04  -6.7284631e-05  -8.6022217e-05   5.0748826e-05   9.6061392e-06  -1.1352463e-04  -5.2286758e-05  -6.8197684e-05  -7.3643792e-05  -4.8454172e-05  -5.7834329e-05  -3.5352697e-05  -2.3595087e-05  -3.3455107e-05  -5.2372649e-05  -6.9905260e-05  -6.5762461e-05  -4.1842354e-05  -2.5510482e-05   2.9939874e-05   5.8162212e-05  -5.4415161e-05  -3.6227468e-05  -2.6266316e-05  -3.0763499e-05   2.4717611e-05  -5.0917575e-06  -2.6901142e-06  -1.2935299e-04  -7.8310977e-05   3.0023146e-04  -5.7966726e-05  -3.5859472e-05  -1.2194128e-04  -1.2209633e-04  -1.2637205e-04  -3.4468097e-05  -7.5300378e-05  -1.8619028e-04  -2.1962911e-04  -1.1384574e-04  -1.2444989e-04  -8.3756664e-05  -9.8507294e-05  -8.7765856e-05  -1.3139632e-04  -1.3130028e-04  -1.4006001e-04  -8.5751783e-05  -1.0842529e-04  -7.2047765e-05  -8.8207921e-05  -7.9181075e-06  -9.7817011e-05  -1.8476105e-04  -1.3501778e-04   2.7444853e-05  -3.7078735e-05   2.5035011e-05  -1.6345083e-04  -7.0708356e-05  -7.9095043e-05  -9.8880908e-05  -8.1731499e-06   9.4979652e-06   2.9438546e-05  -2.1464920e-04  -1.3885270e-04  -1.8849942e-04  -1.6445932e-04  -6.0080732e-05  -2.4801931e-04  -2.0552290e-04  -1.1030558e-04  -2.4318352e-04  -2.3490708e-04  -3.6624704e-04  -2.9897622e-04  -1.8709375e-04  -2.7821168e-04  -1.4084599e-04  -3.8786422e-04  -2.5662301e-04  -2.4266814e-04  -2.8237778e-04  -2.9875843e-04  -2.7567131e-04  -2.2127688e-04  -3.0617880e-04  -1.7565908e-04  -1.4785924e-04  -3.0881658e-04  -2.4302399e-04  -1.9009309e-04  -2.1528568e-04  -4.3146415e-05  -1.6398787e-04  -2.2984370e-04  -1.5756277e-04  -1.4126839e-04  -1.6366866e-04  -1.0096484e-04  -1.2943400e-04  -1.9537619e-04  -5.1650212e-05   2.0602463e-05   4.8617615e-05  -9.8554124e-06  -5.6112337e-07  -2.8954157e-05  -2.2598921e-04  -4.1784786e-04  -1.2396984e-04   6.1034860e-05  -1.0132119e-04  -1.7702609e-05   7.9545628e-05  -1.8985813e-04  -1.7801701e-04  -8.7667043e-05  -3.4384963e-05   7.6910958e-06   6.2486722e-06   2.2102683e-05   5.1627737e-07   3.2101958e-05   1.9424961e-04  -1.4052417e-05   3.9695062e-05   1.1333000e-04  -3.5645276e-06   1.8641014e-05  -2.5673809e-05  -3.5773960e-04  -3.0862103e-04   6.4472155e-05   6.3625290e-05   1.9461739e-05  -1.0472713e-06  -2.3392777e-04  -3.6919736e-04  -1.4774378e-04   2.5541210e-04   2.0775620e-04  -4.8114672e-05   1.3660062e-04   4.5315549e-05   1.5705828e-04   9.3004367e-05  -1.7877125e-05  -7.3709707e-05   1.3886990e-04   1.3117515e-04   2.1857932e-04  -1.0574257e-04  -4.1028667e-05   3.1071020e-05   7.2272682e-05   7.8136952e-05   9.4706865e-05   1.5207440e-04   1.5328015e-04   6.2401966e-05   7.8461418e-05  -8.8844950e-05   1.1563245e-04   3.4830762e-05   5.5855401e-05   1.1915083e-04   9.4341358e-05   1.9018559e-05   8.5030805e-05   7.3337287e-06   1.5595977e-04   1.4187160e-04   8.2042182e-05   1.1303137e-04  -3.1777253e-05  -7.4239107e-05   1.7386148e-04  -5.3209287e-05  -6.2475313e-05   1.0698776e-04  -5.4470873e-04   3.8434278e-04   1.5768334e-05   6.0438097e-04   1.2527529e-03  -1.3306087e-05  -1.7803014e-04  -5.9876450e-05   7.8112338e-05   7.7036805e-04   4.1724588e-04   3.0655813e-04   8.9795115e-06  -6.8333306e-05   1.1265308e-04   2.2729432e-05   1.0597864e-05   2.0869968e-04   5.0657935e-04  -1.5945922e-04   2.5347797e-04   8.6781024e-04  -4.7285260e-05  -1.5356977e-04   1.9265250e-04  -1.4179517e-04   2.0597734e-03   1.5797864e-03  -1.2127527e-05  -2.6470581e-04  -3.8006337e-04   2.6468390e-04   7.2690637e-04   3.4665621e-03   1.1134218e-03   1.2545394e-04   1.7867866e-05  -3.9636263e-04   2.6463385e-04  -7.2476875e-05   5.6620874e-05  -3.3918652e-04  -1.0640702e-04  -2.0572288e-04   1.4426547e-04  -7.1029439e-05   2.2779149e-04  -7.2831829e-05  -2.1292522e-04  -1.5729725e-04   9.6372192e-05   1.8013729e-04   2.6484894e-05   2.7570548e-04   1.7479068e-04   5.9163914e-05  -8.1617931e-06   6.5500952e-05   1.3113829e-04   1.6705052e-04   4.0945772e-05   1.8192250e-04   1.0863533e-04   2.4398425e-04  -5.7892151e-06  -1.0149289e-04   3.4397159e-04   2.1564463e-04   7.7317008e-05   1.4493841e-04  -1.2157947e-04  -6.3418864e-05  -2.8111602e-04
   2.8681400e-05   5.7281251e-05   3.4843415e-05   7.3425499e-05   7.9459725e-05   1.2890246e-04   1.4862418e-04   7.6747925e-05   3.3195231e-06   4.5385771e-05   9.1962782e-05   7.8377573e-05   1.9013429e-04   1.7300035e-04   6.5359146e-05   5.9305869e-05   3.2493097e-05   8.0536160e-05   4.9474216e-05   8.4231572e-05   1.0740276e-04   8.2898199e-05   1.9440833e-04   5.9011138e-05   1.3514314e-04   1.2049696e-04   7.3925464e-05   7.1562712e-05   9.8173022e-05   8.4404348e-05   1.2560878e-04   1.1784487e-04   9.1098668e-05   8.0153212e-06   6.2657272e-05   4.3313970e-05   1.6460038e-04   8.7035571e-05   3.1282307e-05   7.8747649e-05  -3.5645734e-06   1.1198256e-04   5.2721876e-05   4.7514592e-05  -3.7515734e-05  -3.3178633e-05  -4.4061684e-05  -1.7434207e-06  -1.2885229e-04  -1.9119787e-05   4.2913126e-05   2.3131250e-05  -8.7719791e-05  -6.7580938e-05  -4.3149391e-05  -4.8200629e-05  -1.8935946e-05  -1.9007839e-06   1.4323191e-05  -2.6903920e-06   4.2611724e-05   6.5337012e-05   4.0502538e-05   2.0731879e-05   3.6123716e-06   2.8514432e-05   1.7492850e-04  -5.0973293e-05  -2.0847561e-04   9.3365010e-05   3.9548044e-05   2.1347703e-05   6.0225284e-05  -1.1517040e-04  -2.1107765e-04  -1.0907956e-05   6.2778126e-06   1.5533367e-04  -8.2261186e-05   2.3203827e-04   1.7451951e-04   6.2186526e-05   1.0352888e-04   2.9797725e-05   3.8574147e-05   1.4149812e-04   3.8440174e-05   5.9271491e-05   3.9085233e-04   5.6255655e-05   9.3714103e-05  -2.2282159e-04  -2.0496013e-04  -2.5178372e-04  -5.0184078e-05   3.9834454e-05   6.0108553e-05   4.3862531e-05   2.9422418e-04   8.9684824e-05   7.3932184e-05   1.2582140e-04   1.0479641e-04   4.9283655e-05   1.7892087e-04  -5.0089201e-05   2.2536776e-04   2.4286951e-04   2.1494689e-04   1.7316230e-05   5.7072050e-05  -1.7287263e-04   2.1099046e-04   2.4383198e-04  -1.4593985e-04  -7.0784709e-05  -7.1824358e-05  -1.2762695e-04  -5.3177680e-05  -1.0177332e-04   4.5274649e-05   1.6460550e-05  -3.8933523e-05  -1.2927262e-04  -1.4074152e-04  -1.5297784e-04  -5.4517457e-05  -5.7558855e-06  -1.3652552e-05  -1.5834881e-04  -1.1083835e-04  -1.0968447e-04  -1.3777588e-04  -1.3325740e-04  -1.0788083e-04  -8.0766066e-05  -4.0634501e-05  -7.8177838e-05  -8.9208955e-05  -1.2844063e-04  -1.2770926e-04  -1.2136161e-04  -9.6395821e-05   9.1372347e-06   7.2001255e-05  -1.1591208e-04  -1.0362590e-04  -7.6354319e-05  -9.3730905e-05   5.1107402e-06   1.0615097e-04  -2.2581247e-05  -7.5337984e-05  -4.0270623e-05   7.4608130e-05  -1.2449230e-05   6.6461520e-05   3.9083990e-05  -2.1641473e-05  -1.2796564e-04  -1.4742975e-05   5.4048769e-05  -6.0794318e-05  -8.6050136e-05   1.8484722e-04   3.9823765e-05  -3.3737924e-05   8.4324751e-06   1.9840347e-05  -3.9033490e-05  -6.5243724e-05  -1.0787539e-04  -2.4071626e-05   1.9644811e-05   1.5156722e-04   6.1118129e-05   1.6230813e-04   3.7469682e-05  -1.7764841e-05   5.9705868e-05   1.0757935e-04  -9.0455114e-05  -4.9173506e-05   8.9901296e-05   4.8464240e-05   2.9124083e-05   7.6097773e-05  -1.6718950e-05  -6.4460401e-05   2.3616687e-05  -3.4315252e-05   1.8646382e-05  -7.8136608e-06  -1.3529162e-04  -1.5521803e-05  -6.9090073e-05   5.9639009e-05   3.0020737e-05  -5.1023725e-05  -8.1705433e-05  -1.4828976e-04  -7.7353060e-05  -1.0034226e-04   3.7043117e-05   3.3247951e-06  -1.2398010e-04  -5.9693315e-05  -7.7662458e-05  -8.1736256e-05  -5.8329118e-05  -6.5480640e-05  -4.2390704e-05  -3.1780273e-05  -3.7273910e-05  -6.2859217e-05  -7.9117649e-05  -7.1610109e-05  -4.7628350e-05  -3.1949415e-05   2.1571363e-05   4.4372165e-05  -6.3271707e-05  -4.5530962e-05  -2.8014734e-05  -3.5670025e-05   1.8075276e-05  -2.1650727e-05  -7.5553661e-06  -1.5366547e-04  -9.5203079e-05   3.2246232e-04  -5.5818259e-05  -3.8517208e-05  -1.5101825e-04  -1.0389090e-04  -1.3717682e-04  -3.1972169e-05  -7.8004873e-05  -2.2098634e-04  -2.5719761e-04  -1.0536536e-04  -1.1442565e-04  -8.8374263e-05  -1.0189166e-04  -1.0786513e-04  -1.6005677e-04  -1.5824998e-04  -1.7118477e-04  -1.0288640e-04  -1.2522892e-04  -9.6954232e-05  -9.6136575e-05  -2.0706818e-05  -1.3144952e-04  -2.1479092e-04  -1.5754741e-04   1.6709941e-05  -5.6840177e-05   2.9931877e-05  -2.1222435e-04  -1.0879899e-04  -9.3082818e-05  -1.2271098e-04  -1.4479290e-05   9.3182054e-06   4.2269785e-05  -2.3424389e-04  -1.5637081e-04  -2.0819189e-04  -1.9865940e-04  -7.1574062e-05  -2.7291471e-04  -2.3569738e-04  -1.1763892e-04  -2.6141871e-04  -2.5567924e-04  -3.9033204e-04  -3.2461150e-04  -1.9706017e-04  -3.1441385e-04  -1.5562374e-04  -4.1395924e-04  -2.8352496e-04  -2.6059634e-04  -3.0128135e-04  -3.1973259e-04  -3.0515186e-04  -2.3125667e-04  -3.4203408e-04  -1.8715288e-04  -1.6178712e-04  -3.3548886e-04  -2.5951658e-04  -2.0868112e-04  -2.3360600e-04  -4.7669627e-05  -1.8793585e-04  -2.6243822e-04  -1.7990494e-04  -1.4905836e-04  -1.7871626e-04  -1.1506719e-04  -1.4097896e-04  -2.1218264e-04  -6.6126593e-05   2.0527208e-05   4.8067407e-05  -2.5979751e-05  -5.5479842e-06  -3.7428517e-05  -2.3653211e-04  -4.4275158e-04  -1.2521379e-04   5.4796077e-05  -1.0495020e-04  -2.2447759e-05   7.6739527e-05  -2.0385533e-04  -1.8685081e-04  -1.0239873e-04  -5.0116708e-05   1.8018761e-06   5.6330332e-06   2.2405129e-05  -1.2016235e-06   2.3685479e-05   1.9646487e-04  -2.4988451e-05   3.4435910e-05   1.1203291e-04  -1.2073213e-05   9.0574137e-06  -4.8631259e-05  -3.8153307e-04  -3.2012869e-04   5.2407915e-05   5.1802125e-05   1.7089608e-05  -1.1867362e-05  -2.5296922e-04  -3.7495700e-04  -1.5625341e-04   2.7456705e-04   2.2386330e-04  -4.3601043e-05   1.3511001e-04   4.3259689e-05   1.5788895e-04   8.8097628e-05  -2.6615614e-05  -8.5507090e-05   1.4194181e-04   1.3017402e-04   2.2746730e-04  -1.2642503e-04  -6.5538799e-05   2.2145480e-05   7.2511659e-05   7.8667531e-05   1.0405087e-04   1.7023317e-04   1.5588397e-04   5.9617970e-05   7.3319625e-05  -1.1820483e-04   1.1684429e-04   3.5693820e-05   5.0313971e-05   1.2596225e-04   9.8071477e-05   1.5073695e-05   1.0265550e-04  -5.6406321e-06   1.6346241e-04   1.4960406e-04   9.2250568e-05   1.2520714e-04  -3.3102459e-05  -8.1004355e-05   2.0680969e-04  -1.0341265e-05  -2.0600169e-05   1.6802996e-04  -5.3077964e-04   4.2710881e-04   5.9979672e-05   8.7164913e-04   1.4922637e-03   5.6207132e-05  -1.4014251e-04  -2.4573504e-05   1.3969761e-04   8.7384480e-04   6.3710728e-04   4.0392936e-04   5.0575492e-05  -4.7502675e-05   1.7009734e-04   9.3893565e-05   6.8766438e-05   2.5950701e-04   5.7812616e-04  -8.2867773e-05   3.1942026e-04   9.8157833e-04   3.2789622e-05  -1.2732136e-04   2.6296752e-04  -8.8924920e-05   2.4276519e-03   1.8943952e-03   6.2419490e-05  -2.1140625e-04  -3.6343460e-04   3.4260149e-04   9.0028476e-04   4.0127405e-03   1.3112829e-03   1.4353311e-04   2.3026626e-05  -3.8191814e-04   2.8829903e-04  -6.1261211e-05   6.5298155e-05  -3.8969715e-04  -1.0433761e-04  -2.0867472e-04   1.5981519e-04  -9.0799086e-05   2.4130367e-04  -3.8422311e-05  -2.4030469e-04  -1.7537958e-04   1.1440481e-04   1.9048246e-04   3.8071537e-05   3.0958276e-04   1.8676170e-04   7.3931641e-05  -1.8616469e-06   7.6629012e-05   1.5413735e-04   2.1034083e-04   5.5023748e-05   2.0095903e-04   1.2659595e-04   2.8985269e-04  -1.8742482e-05  -1.3258594e-04   3.8697931e-04   2.4682575e-04   9.0217334e-05   1.7671487e-04  -1.2881113e-04  -7.7536525e-05  -2.9707587e-04
   1.7578192e-05   5.3697060e-05   3.3852226e-05   6.6126647e-05   7.9808585e-05   1.2451874e-04   1.5528816e-04   7.5081072e-05  -2.0532399e-06   3.8512623e-05   7.7393551e-05   6.6375298e-05   1.9663817e-04   1.8039572e-04   6.0850071e-05   4.9610369e-05   2.7710366e-05   7.3045463e-05   3.8554598e-05   7.4759007e-05   1.0086642e-04   8.1825595e-05   1.9901114e-04   5.7110400e-05   1.3804235e-04   1.1486772e-04   6.5336507e-05   6.8062282e-05   1.0048545e-04   8.7210888e-05   1.3195502e-04   1.1677004e-04   9.0724837e-05   5.2717861e-06   6.2901259e-05   4.3904972e-05   1.6897844e-04   9.1502126e-05   3.3559029e-05   8.4171804e-05  -1.5347249e-05   1.2176616e-04   5.0917323e-05   4.7251918e-05  -6.9563386e-05  -4.7181483e-05  -4.7804390e-05   4.2142753e-06  -1.3495724e-04  -1.9135300e-05   4.5232021e-05   6.5077763e-06  -1.1197580e-04  -6.9365866e-05  -3.6144845e-05  -5.3646216e-05  -1.9449338e-05  -4.9419335e-06   1.1123963e-05  -7.1349123e-06   4.2561698e-05   6.5738910e-05   3.0910777e-05   1.3261975e-05   6.5382129e-06   2.5126065e-05   1.8899361e-04  -6.3569518e-05  -2.4436475e-04   8.8501555e-05   3.8558794e-05   2.5643266e-05   5.8534365e-05  -1.3850200e-04  -2.7022798e-04  -4.1905959e-05   3.6959784e-05   1.6830264e-04  -4.3322764e-05   2.5389903e-04   1.8869711e-04   9.7624979e-05   9.5787102e-05   4.2198023e-06   6.1992093e-05   1.8245284e-04   4.9927209e-05   1.1311999e-04   4.7802264e-04   4.4926305e-05   9.0721349e-05  -2.1237652e-04  -1.7572074e-04  -2.4914694e-04  -7.0400796e-06   7.6538408e-05   7.5402944e-05   5.3279468e-05   3.5461223e-04   1.2127131e-04   1.2477634e-04   1.7308175e-04   1.2849768e-04   6.5349570e-05   2.5914379e-04  -4.2243536e-05   2.3759628e-04   3.1955850e-04   2.9213909e-04   4.0974385e-05   8.1970091e-05  -1.9351033e-04   1.5590428e-04   2.3543011e-04  -1.6159193e-04  -8.3977306e-05  -7.5916222e-05  -1.4224231e-04  -6.6894267e-05  -1.2073809e-04   3.1563668e-05   1.0898084e-05  -4.2033767e-05  -1.4456695e-04  -1.5665747e-04  -1.7079789e-04  -7.5569018e-05  -2.1064937e-05  -1.9886961e-05  -1.7459530e-04  -1.2441305e-04  -1.2487004e-04  -1.5206240e-04  -1.5003335e-04  -1.2193822e-04  -9.8307790e-05  -6.5542802e-05  -9.0992980e-05  -1.1030762e-04  -1.4655330e-04  -1.3689911e-04  -1.3440448e-04  -1.0723541e-04   2.2124544e-06   6.6891062e-05  -1.3281596e-04  -1.1564652e-04  -7.9620472e-05  -1.0277916e-04   8.5826686e-07   1.0226285e-04  -3.1897519e-05  -8.9132781e-05  -5.2965569e-05   7.0938201e-05  -2.3199280e-05   6.0472493e-05   2.7287988e-05  -2.2254571e-05  -1.3845103e-04  -1.8715125e-05   4.4172561e-05  -7.0828031e-05  -1.0276041e-04   1.8436888e-04   3.5377517e-05  -3.9381184e-05  -4.3777569e-06   9.1512089e-06  -5.0714546e-05  -8.1665952e-05  -1.2458661e-04  -3.5934735e-05   1.4749073e-05   1.5050184e-04   5.2886769e-05   1.5173167e-04   2.2584435e-05  -3.2279219e-05   4.7701847e-05   9.3545793e-05  -1.0738999e-04  -6.0312949e-05   7.1426852e-05   2.3694265e-05   2.1750931e-05   6.5788030e-05  -2.8070673e-05  -7.9526704e-05   6.4925506e-06  -3.6759488e-05   1.6243154e-05  -1.0933482e-05  -1.4583486e-04  -2.2831546e-05  -8.1271389e-05   4.4102131e-05   2.0933173e-05  -5.4134841e-05  -9.0305130e-05  -1.6265045e-04  -8.6647580e-05  -1.1407731e-04   2.1650072e-05  -3.2605174e-06  -1.3243509e-04  -6.6364921e-05  -8.6577897e-05  -8.9192504e-05  -6.8155625e-05  -7.2477402e-05  -4.9107531e-05  -4.0722372e-05  -4.0781759e-05  -7.3099757e-05  -8.7736820e-05  -7.6653837e-05  -5.2834243e-05  -3.8635813e-05   1.2022507e-05   2.8531864e-05  -7.2435884e-05  -5.5033342e-05  -2.9597318e-05  -4.0444960e-05   1.0490853e-05  -3.8817494e-05  -1.2785817e-05  -1.7626236e-04  -1.1045945e-04   3.4173362e-04  -5.2091493e-05  -3.9879929e-05  -1.8093089e-04  -7.8552295e-05  -1.4342079e-04  -2.8647748e-05  -8.0369676e-05  -2.5677037e-04  -2.9408825e-04  -9.5519547e-05  -1.0154583e-04  -9.1028045e-05  -1.0306162e-04  -1.2875930e-04  -1.8882601e-04  -1.8529996e-04  -2.0237519e-04  -1.2025169e-04  -1.4179740e-04  -1.2473409e-04  -1.0338366e-04  -3.7201065e-05  -1.6733922e-04  -2.4428709e-04  -1.8056356e-04   3.8914612e-06  -7.2596948e-05   4.0407308e-05  -2.6285036e-04  -1.4969799e-04  -1.0757832e-04  -1.4791083e-04  -1.9870519e-05   1.1838561e-05   5.8014521e-05  -2.5179387e-04  -1.7182455e-04  -2.2678945e-04  -2.3392319e-04  -8.3836268e-05  -2.9554057e-04  -2.6477317e-04  -1.2258455e-04  -2.7610416e-04  -2.7504356e-04  -4.1076012e-04  -3.4690018e-04  -2.0539797e-04  -3.4918960e-04  -1.6924113e-04  -4.3583189e-04  -3.0919768e-04  -2.7688246e-04  -3.1676241e-04  -3.3734109e-04  -3.3261222e-04  -2.3862200e-04  -3.7597539e-04  -1.9774348e-04  -1.7608733e-04  -3.5998795e-04  -2.7346447e-04  -2.2651450e-04  -2.5071341e-04  -5.1142534e-05  -2.1115284e-04  -2.9501634e-04  -2.0176780e-04  -1.5597247e-04  -1.9294204e-04  -1.2884954e-04  -1.4988799e-04  -2.2704934e-04  -7.9205408e-05   2.0654066e-05   4.7140947e-05  -4.3844423e-05  -1.1611465e-05  -4.6335104e-05  -2.4546573e-04  -4.6343426e-04  -1.2471962e-04   4.4606277e-05  -1.0709613e-04  -2.7008763e-05   6.7892701e-05  -2.1895843e-04  -1.9331340e-04  -1.1948458e-04  -6.7971719e-05  -6.4087279e-06   3.5578848e-06   2.1734318e-05  -5.1283930e-06   1.2355080e-05   1.9103412e-04  -3.7098387e-05   2.6774498e-05   1.0631367e-04  -2.2137435e-05  -1.5492418e-06  -7.3672582e-05  -4.0340554e-04  -3.2857344e-04   3.8861247e-05   3.7980567e-05   1.4301880e-05  -2.2472652e-05  -2.7108955e-04  -3.7726972e-04  -1.6328242e-04   2.9042855e-04   2.3677617e-04  -3.7313106e-05   1.3140674e-04   3.9283457e-05   1.5595103e-04   7.8216258e-05  -3.9321581e-05  -9.6780492e-05   1.4274021e-04   1.2768796e-04   2.3331904e-04  -1.4889939e-04  -9.4158136e-05   1.1208632e-05   7.1947477e-05   7.8437040e-05   1.1205183e-04   1.8642546e-04   1.5600770e-04   5.5390803e-05   6.6580001e-05  -1.4710435e-04   1.1579011e-04   3.7203945e-05   4.2856776e-05   1.3075597e-04   1.0071157e-04   1.0588864e-05   1.1650488e-04  -2.1532606e-05   1.6942041e-04   1.5546853e-04   1.0218796e-04   1.3620348e-04  -3.5557711e-05  -8.9930019e-05   2.3852050e-04   3.9618166e-05   2.8323457e-05   2.3424740e-04  -4.9875536e-04   4.6832310e-04   1.0732785e-04   1.1471688e-03   1.7193739e-03   1.3365289e-04  -9.2376574e-05   1.5482273e-05   2.0400166e-04   9.7660914e-04   8.6505302e-04   4.9611175e-04   9.9069749e-05  -2.1546686e-05   2.3149654e-04   1.7234140e-04   1.3334771e-04   3.1445170e-04   6.4488448e-04   4.5635679e-06   3.8804184e-04   1.0868620e-03   1.2185564e-04  -8.9692014e-05   3.3937211e-04  -2.1946995e-05   2.7778114e-03   2.2010568e-03   1.4648847e-04  -1.4434181e-04  -3.3296413e-04   4.2112907e-04   1.0714547e-03   4.5257585e-03   1.4982076e-03   1.6027101e-04   2.8619472e-05  -3.5385695e-04   3.1141515e-04  -4.7617426e-05   7.4924073e-05  -4.3221103e-04  -9.9202439e-05  -2.0402270e-04   1.7440528e-04  -1.0771058e-04   2.5239140e-04   4.9169381e-06  -2.6116881e-04  -1.8976172e-04   1.3488555e-04   2.0047693e-04   5.2537705e-05   3.4175422e-04   1.9911025e-04   9.1301641e-05   7.1104202e-06   8.9838373e-05   1.7776292e-04   2.5626525e-04   7.2078421e-05   2.1922796e-04   1.4587468e-04   3.3647474e-04  -3.3788435e-05  -1.6370890e-04   4.2850939e-04   2.7751861e-04   1.0373385e-04   2.0836315e-04  -1.3259910e-04  -9.4608628e-05  -3.0797254e-04
   4.8755250e-06   4.8707191e-05   3.2087271e-05   5.6741287e-05   7.8650541e-05   1.1735591e-04   1.5919375e-04   7.0920641e-05  -8.0483128e-06   3.0293117e-05   5.9688737e-05   5.1882500e-05   2.0022840e-04   1.8503617e-04   5.4644510e-05   3.7834982e-05   2.1870337e-05   6.3389551e-05   2.5870442e-05   6.3073443e-05   9.1879462e-05   7.9093813e-05   2.0086964e-04   5.3888589e-05   1.3867728e-04   1.0660947e-04   5.4626454e-05   6.2696174e-05   1.0088779e-04   8.7877785e-05   1.3623211e-04   1.1354385e-04   8.8682621e-05   2.1815107e-06   6.1847807e-05   4.3562481e-05   1.6979806e-04   9.4062527e-05   3.3836100e-05   8.7802011e-05  -2.8999888e-05   1.3089135e-04   4.9479181e-05   4.5958288e-05  -1.0633221e-04  -6.2506978e-05  -5.1020452e-05   9.4177078e-06  -1.3863998e-04  -2.0079425e-05   4.8444734e-05  -1.2149392e-05  -1.3703747e-04  -7.0448829e-05  -2.8078433e-05  -5.7755048e-05  -1.9941269e-05  -7.9957077e-06   8.6575558e-06  -1.0571839e-05   4.4484632e-05   6.6258277e-05   2.1206707e-05   6.2249918e-06   9.2291812e-06   2.1046041e-05   2.0324382e-04  -7.7127007e-05  -2.8173403e-04   8.2634234e-05   3.7618713e-05   2.9437596e-05   5.5979879e-05  -1.6152407e-04  -3.3307343e-04  -7.6024602e-05   7.5751072e-05   1.8217731e-04  -1.2965417e-06   2.7277448e-04   1.9983973e-04   1.3646756e-04   6.9269401e-05  -3.3730272e-05   8.4938047e-05   2.2262986e-04   6.0067973e-05   1.7555214e-04   5.6107646e-04   2.1658666e-05   7.9586653e-05  -1.9986502e-04  -1.4092507e-04  -2.4041792e-04   4.5311883e-05   1.1680933e-04   8.8679944e-05   6.3567949e-05   4.1666673e-04   1.5724899e-04   1.8036606e-04   2.2726922e-04   1.5605755e-04   8.4583129e-05   3.4899686e-04  -3.9997448e-05   2.3744128e-04   4.0155895e-04   3.7574304e-04   6.7960455e-05   1.1192440e-04  -2.1681082e-04   8.0880335e-05   2.2146557e-04  -1.7554678e-04  -9.6932077e-05  -7.9592259e-05  -1.5482210e-04  -8.0532282e-05  -1.3917572e-04   1.4418643e-05   3.7336327e-06  -4.4634810e-05  -1.5821641e-04  -1.7056790e-04  -1.8705764e-04  -9.7608980e-05  -3.8411983e-05  -2.6814947e-05  -1.8891183e-04  -1.3680187e-04  -1.3882829e-04  -1.6481799e-04  -1.6552043e-04  -1.3496701e-04  -1.1550711e-04  -9.1721189e-05  -1.0357930e-04  -1.3118310e-04  -1.6331330e-04  -1.4409937e-04  -1.4604257e-04  -1.1678897e-04  -5.5913621e-06   5.9051793e-05  -1.4881209e-04  -1.2643646e-04  -8.1452637e-05  -1.1070244e-04  -3.8656376e-06   9.4624252e-05  -4.0785973e-05  -1.0322206e-04  -6.5626233e-05   6.6088097e-05  -3.4459922e-05   5.3339351e-05   1.4350566e-05  -2.4486029e-05  -1.4807110e-04  -2.2837317e-05   3.2032390e-05  -7.9756034e-05  -1.1889305e-04   1.7992149e-04   2.7993447e-05  -4.5380874e-05  -1.8267472e-05  -2.4711955e-06  -6.2038787e-05  -9.7404687e-05  -1.3990190e-04  -4.7303130e-05   9.8617199e-06   1.4740807e-04   4.3177756e-05   1.3856183e-04   6.1293257e-06  -4.7482650e-05   3.3827383e-05   7.7160116e-05  -1.2512297e-04  -7.3976906e-05   5.0836931e-05  -3.0690807e-06   1.3225552e-05   5.4062406e-05  -4.0614118e-05  -9.5676475e-05  -1.3621735e-05  -3.8130731e-05   1.3181156e-05  -1.4463192e-05  -1.5443133e-04  -3.0416672e-05  -9.2976211e-05   2.7077540e-05   1.1381301e-05  -5.6336926e-05  -9.7280416e-05  -1.7495486e-04  -9.4717802e-05  -1.2685149e-04   5.2591853e-06  -9.8335172e-06  -1.3858493e-04  -7.1960443e-05  -9.4594078e-05  -9.5726115e-05  -7.7520490e-05  -7.8556810e-05  -5.5208445e-05  -5.0161272e-05  -4.3836673e-05  -8.2729750e-05  -9.5456494e-05  -8.0698775e-05  -5.7211451e-05  -4.5314667e-05   1.7439651e-06   1.1261939e-05  -8.1640265e-05  -6.4324765e-05  -3.0992557e-05  -4.4946723e-05   2.3280724e-06  -5.6123944e-05  -1.8238909e-05  -1.9620814e-04  -1.2337971e-04   3.5780485e-04  -4.7275603e-05  -3.9957400e-05  -2.1111281e-04  -4.6542164e-05  -1.4413178e-04  -2.4803545e-05  -8.2827211e-05  -2.9291822e-04  -3.2935055e-04  -8.5610655e-05  -8.6761505e-05  -9.1545780e-05  -1.0216052e-04  -1.4972246e-04  -2.1688056e-04  -2.1179473e-04  -2.3275803e-04  -1.3752391e-04  -1.5778381e-04  -1.5500783e-04  -1.0998787e-04  -5.7341025e-05  -2.0453841e-04  -2.7249843e-04  -2.0346504e-04  -1.0802241e-05  -8.2059181e-05   5.7642666e-05  -3.1360066e-04  -1.9197058e-04  -1.2216189e-04  -1.7373045e-04  -2.3512287e-05   1.7866386e-05   7.6445038e-05  -2.6683439e-04  -1.8466977e-04  -2.4389477e-04  -2.6916389e-04  -9.6529622e-05  -3.1546377e-04  -2.9182475e-04  -1.2475619e-04  -2.8691961e-04  -2.9280956e-04  -4.2763093e-04  -3.6548272e-04  -2.1242112e-04  -3.8177879e-04  -1.8140418e-04  -4.5340181e-04  -3.3317754e-04  -2.9156876e-04  -3.2875028e-04  -3.5157034e-04  -3.5763159e-04  -2.4365868e-04  -4.0760892e-04  -2.0758829e-04  -1.9085565e-04  -3.8209107e-04  -2.8482829e-04  -2.4336050e-04  -2.6649308e-04  -5.3191669e-05  -2.3289465e-04  -3.2690976e-04  -2.2256716e-04  -1.6206201e-04  -2.0612706e-04  -1.4185331e-04  -1.5577685e-04  -2.3974004e-04  -8.9766491e-05   2.1241577e-05   4.6048892e-05  -6.2589876e-05  -1.8777816e-05  -5.5407060e-05  -2.5343107e-04  -4.8015549e-04  -1.2283457e-04   3.0847405e-05  -1.0793087e-04  -3.0958497e-05   5.2454074e-05  -2.3566301e-04  -1.9789749e-04  -1.3879601e-04  -8.7464115e-05  -1.6916986e-05  -8.9233822e-08   2.0117460e-05  -1.1564353e-05  -1.6340002e-06   1.7735253e-04  -4.9921703e-05   1.6718823e-05   9.6080213e-05  -3.3511420e-05  -1.2623265e-05  -9.9684962e-05  -4.2362974e-04  -3.3507650e-04   2.4616081e-05   2.2915213e-05   1.1267336e-05  -3.2358620e-05  -2.8855161e-04  -3.7834819e-04  -1.6933550e-04   3.0285085e-04   2.4627147e-04  -2.9517050e-05   1.2600819e-04   3.3594872e-05   1.5166560e-04   6.4047093e-05  -5.5888950e-05  -1.0709542e-04   1.4143658e-04   1.2417431e-04   2.3634656e-04  -1.7267554e-04  -1.2574773e-04  -1.0406793e-06   7.0600034e-05   7.7582539e-05   1.1830873e-04   1.9997815e-04   1.5383780e-04   4.9791225e-05   5.8657191e-05  -1.7423496e-04   1.1262245e-04   3.9472832e-05   3.3764358e-05   1.3326338e-04   1.0225095e-04   5.6250187e-06   1.2582532e-04  -3.9340614e-05   1.7374242e-04   1.5930907e-04   1.1149883e-04   1.4557341e-04  -3.9242672e-05  -1.0079171e-04   2.6790492e-04   9.4832498e-05   8.2577581e-05   3.0433868e-04  -4.4983688e-04   5.0779737e-04   1.5611076e-04   1.4220619e-03   1.9258676e-03   2.1656525e-04  -3.6401264e-05   5.8982720e-05   2.6843863e-04   1.0774183e-03   1.0930032e-03   5.7932807e-04   1.5319848e-04   8.6819782e-06   2.9431329e-04   2.5479853e-04   2.0187985e-04   3.7228194e-04   7.0558000e-04   1.0011790e-04   4.5748581e-04   1.1821887e-03   2.1647711e-04  -4.2248877e-05   4.1975021e-04   5.7093974e-05   3.0974358e-03   2.4905978e-03   2.3693752e-04  -6.6665462e-05  -2.9026640e-04   4.9787770e-04   1.2348699e-03   4.9872895e-03   1.6681391e-03   1.7541850e-04   3.4826927e-05  -3.1293931e-04   3.3432967e-04  -3.2162414e-05   8.5429115e-05  -4.6394082e-04  -9.1112296e-05  -1.9164240e-04   1.8784173e-04  -1.2074357e-04   2.6122046e-04   5.5921277e-05  -2.7390762e-04  -1.9968128e-04   1.5782127e-04   2.1041847e-04   6.9662326e-05   3.7150076e-04   2.1222877e-04   1.1109230e-04   1.8842949e-05   1.0523745e-04   2.0183565e-04   3.0369379e-04   9.1804288e-05   2.3643413e-04   1.6627961e-04   3.8285442e-04  -5.0136586e-05  -1.9271089e-04   4.6783462e-04   3.0698496e-04   1.1761340e-04   2.3883010e-04  -1.3274747e-04  -1.1438435e-04  -3.1340986e-04
  -9.1435233e-06   4.2435483e-05   2.9557993e-05   4.5447050e-05   7.5999211e-05   1.0760296e-04   1.6045774e-04   6.4488003e-05  -1.4528020e-05   2.0850624e-05   3.9302754e-05   3.5255480e-05   2.0083382e-04   1.8690225e-04   4.7110268e-05   2.4190937e-05   1.4855426e-05   5.1806606e-05   1.1724250e-05   4.9464205e-05   8.0711458e-05   7.4737252e-05   2.0001924e-04   4.9383143e-05   1.3700522e-04   9.5950817e-05   4.2083059e-05   5.5547641e-05   9.9192960e-05   8.6328159e-05   1.3859174e-04   1.0818894e-04   8.4935520e-05  -1.2276989e-06   5.9458537e-05   4.2279308e-05   1.6733259e-04   9.4602143e-05   3.1932176e-05   8.9559824e-05  -4.3958552e-05   1.3899751e-04   4.8724164e-05   4.3577505e-05  -1.4709014e-04  -7.8426609e-05  -5.3653792e-05   1.3169847e-05  -1.4007704e-04  -2.2325901e-05   5.2552220e-05  -3.2423843e-05  -1.6225489e-04  -7.1064480e-05  -1.9502556e-05  -6.0364291e-05  -2.0518717e-05  -1.1034112e-05   7.1858242e-06  -1.2811865e-05   4.8467142e-05   6.7182374e-05   1.1963182e-05  -7.3355958e-08   1.1467730e-05   1.6357094e-05   2.1761446e-04  -9.0911228e-05  -3.1966237e-04   7.6263351e-05   3.6816935e-05   3.2552458e-05   5.2866513e-05  -1.8327154e-04  -3.9759182e-04  -1.1219999e-04   1.2201497e-04   1.9698929e-04   4.1917524e-05   2.8777661e-04   2.0764133e-04   1.7762952e-04   2.3586479e-05  -8.3073597e-05   1.0625154e-04   2.6020188e-04   6.8739910e-05   2.4470762e-04   6.3646311e-04  -1.3543465e-05   6.0833884e-05  -1.8594052e-04  -1.0221086e-04  -2.2569019e-04   1.0539035e-04   1.5945779e-04   9.9366667e-05   7.4888131e-05   4.7879654e-04   1.9701261e-04   2.3921250e-04   2.8744676e-04   1.8722173e-04   1.0685452e-04   4.4470218e-04  -4.4543946e-05   2.2480096e-04   4.8612845e-04   4.6322422e-04   9.7635897e-05   1.4663517e-04  -2.4212452e-04  -9.0269834e-06   2.0365519e-04  -1.8741616e-04  -1.0922639e-04  -8.2862347e-05  -1.6496294e-04  -9.3537958e-05  -1.5648341e-04  -5.7573930e-06  -4.9296967e-06  -4.6732522e-05  -1.6980388e-04  -1.8199155e-04  -2.0129763e-04  -1.1988316e-04  -5.7379022e-05  -3.4301711e-05  -2.0089022e-04  -1.4760244e-04  -1.5110751e-04  -1.7571206e-04  -1.7925437e-04  -1.4657863e-04  -1.3172587e-04  -1.1833440e-04  -1.1557026e-04  -1.5102600e-04  -1.7823664e-04  -1.4914892e-04  -1.5594375e-04  -1.2477720e-04  -1.4034943e-05   4.8672342e-05  -1.6340335e-04  -1.3570546e-04  -8.1869302e-05  -1.1728918e-04  -8.8879298e-06   8.3560932e-05  -4.8790325e-05  -1.1725960e-04  -7.7761146e-05   6.0298860e-05  -4.6012775e-05   4.5333540e-05   8.2540513e-07  -2.8749006e-05  -1.5679846e-04  -2.6980447e-05   1.8114543e-05  -8.7369885e-05  -1.3393278e-04   1.7160985e-04   1.7582269e-05  -5.1681578e-05  -3.2697801e-05  -1.4521459e-05  -7.2686870e-05  -1.1184824e-04  -1.5326559e-04  -5.7723085e-05   5.1246395e-06   1.4274344e-04   3.2372406e-05   1.2348352e-04  -1.1289597e-05  -6.2862328e-05   1.8566377e-05   5.9148382e-05  -1.4325148e-04  -8.9955939e-05   2.9102492e-05  -3.0680863e-05   3.8863908e-06   4.1462903e-05  -5.4022513e-05  -1.1261954e-04  -3.6268607e-05  -3.8142004e-05   9.7431517e-06  -1.8346476e-05  -1.6083335e-04  -3.7929723e-05  -1.0373643e-04   9.3026625e-06   1.8695015e-06  -5.7598127e-05  -1.0231114e-04  -1.8476201e-04  -1.0114369e-04  -1.3832034e-04  -1.1449563e-05  -1.6104659e-05  -1.4222227e-04  -7.6173927e-05  -1.0137089e-04  -1.0105553e-04  -8.6001654e-05  -8.3468938e-05  -6.0413290e-05  -5.9775520e-05  -4.6295337e-05  -9.1393411e-05  -1.0197745e-04  -8.3560174e-05  -6.0532235e-05  -5.1714029e-05  -8.8194062e-06  -6.8414533e-06  -9.0574538e-05  -7.2979456e-05  -3.2171340e-05  -4.9038423e-05  -6.0328480e-06  -7.3240943e-05  -2.3781391e-05  -2.1265976e-04  -1.3338017e-04   3.7053575e-04  -4.1948132e-05  -3.8841996e-05  -2.4099563e-04  -8.6103264e-06  -1.3853313e-04  -2.0755848e-05  -8.5803216e-05  -3.2873770e-04  -3.6207954e-04  -7.7011816e-05  -7.1129248e-05  -8.9823248e-05  -9.9412463e-05  -1.6993663e-04  -2.4339717e-04  -2.3709936e-04  -2.6148309e-04  -1.5440040e-04  -1.7284673e-04  -1.8725482e-04  -1.1603186e-04  -8.0848247e-05  -2.4203177e-04  -2.9871511e-04  -2.2561706e-04  -2.7095022e-05  -8.3129638e-05   8.2520911e-05  -3.6268934e-04  -2.3410076e-04  -1.3635576e-04  -1.9933527e-04  -2.4584143e-05   2.8090962e-05   9.7170276e-05  -2.7896187e-04  -1.9449439e-04  -2.5912600e-04  -3.0320401e-04  -1.0924966e-04  -3.3233408e-04  -3.1599313e-04  -1.2388664e-04  -2.9367660e-04  -3.0876699e-04  -4.4112285e-04  -3.8011698e-04  -2.1839534e-04  -4.1147026e-04  -1.9185098e-04  -4.6668847e-04  -3.5499457e-04  -3.0470040e-04  -3.3726897e-04  -3.6250413e-04  -3.7981844e-04  -2.4671476e-04  -4.3659353e-04  -2.1682734e-04  -2.0609662e-04  -4.0156371e-04  -2.9359704e-04  -2.5895685e-04  -2.8081383e-04  -5.3538236e-05  -2.5249010e-04  -3.5741247e-04  -2.4172149e-04  -1.6734697e-04  -2.1804565e-04  -1.5365175e-04  -1.5842919e-04  -2.5006439e-04  -9.6732347e-05   2.2547946e-05   4.4988463e-05  -8.1235475e-05  -2.7017581e-05  -6.4350706e-05  -2.6138809e-04  -4.9349893e-04  -1.1996532e-04   1.4209897e-05  -1.0766245e-04  -3.3850954e-05   3.0169917e-05  -2.5450993e-04  -2.0138914e-04  -1.5996150e-04  -1.0791694e-04  -2.9525130e-05  -5.2845663e-06   1.7673194e-05  -2.0641256e-05  -1.7851629e-05   1.5520293e-04  -6.2908677e-05   4.4092667e-06   8.1492085e-05  -4.5849342e-05  -2.3554511e-05  -1.2539082e-04  -4.4263257e-04  -3.4125754e-04   1.0455035e-05   7.4144025e-06   8.1711290e-06  -4.1099297e-05  -3.0573828e-04  -3.8103414e-04  -1.7506530e-04   3.1184657e-04   2.5228698e-04  -2.0553309e-05   1.1950221e-04   2.6515941e-05   1.4555562e-04   4.6593649e-05  -7.5949355e-05  -1.1604539e-04   1.3828070e-04   1.2010358e-04   2.3687680e-04  -1.9716278e-04  -1.5894673e-04  -1.3806783e-05   6.8469230e-05   7.6216996e-05   1.2246359e-04   2.1031365e-04   1.4961460e-04   4.2887374e-05   4.9995729e-05  -1.9841595e-04   1.0757945e-04   4.2527394e-05   2.3376692e-05   1.3327463e-04   1.0268592e-04   2.0477585e-07   1.3017136e-04  -5.7947402e-05   1.7634044e-04   1.6101467e-04   1.1981696e-04   1.5290990e-04  -4.4181971e-05  -1.1319762e-04   2.9400472e-04   1.5308917e-04   1.4007661e-04   3.7682354e-04  -3.8612627e-04   5.4531106e-04   2.0452405e-04   1.6878349e-03   2.1047716e-03   3.0222254e-04   2.5617165e-05   1.0443339e-04   3.3035511e-04   1.1750279e-03   1.3129934e-03   6.5052792e-04   2.1129154e-04   4.2058164e-05   3.5574082e-04   3.3755262e-04   2.7149850e-04   4.3140287e-04   7.5924994e-04   2.0079766e-04   5.2579013e-04   1.2667335e-03   3.1286216e-04   1.2660228e-05   5.0165556e-04   1.4535504e-04   3.3753261e-03   2.7549641e-03   3.3013726e-04   1.7703617e-05  -2.3773606e-04   5.7059105e-04   1.3854915e-03   5.3820104e-03   1.8160982e-03   1.8889859e-04   4.1881193e-05  -2.6052075e-04   3.5737914e-04  -1.5579599e-05   9.6670403e-05  -4.8255025e-04  -8.0282073e-05  -1.7184797e-04   1.9999474e-04  -1.2917784e-04   2.6806436e-04   1.1286257e-04  -2.7733232e-04  -2.0462068e-04   1.8308039e-04   2.2054336e-04   8.9055765e-05   3.9822194e-04   2.2639976e-04   1.3291645e-04   3.3271995e-05   1.2274169e-04   2.2617524e-04   3.5137705e-04   1.1363512e-04   2.5228479e-04   1.8752382e-04   4.2799345e-04  -6.6765488e-05  -2.1732292e-04   5.0431608e-04   3.3450595e-04   1.3157250e-04   2.6713109e-04  -1.2927512e-04  -1.3633540e-04  -3.1312121e-04
  -2.4161926e-05   3.5039558e-05   2.6274976e-05   3.2451058e-05   7.1902487e-05   9.5504614e-05   1.5934473e-04   5.6166847e-05  -2.1340409e-05   1.0314235e-05   1.6756940e-05   1.6897291e-05   1.9845054e-04   1.8607834e-04   3.8682304e-05   8.9291205e-06   6.5507784e-06   3.8575948e-05  -3.5602197e-06   3.4245553e-05   6.7677969e-05   6.8827450e-05   1.9652821e-04   4.3658811e-05   1.3303071e-04   8.3166583e-05   2.8035725e-05   4.6750283e-05   9.5264349e-05   8.2624359e-05   1.3930306e-04   1.0075415e-04   7.9473310e-05  -4.9342231e-06   5.5727463e-05   4.0090268e-05   1.6205746e-04   9.3107147e-05   2.7796645e-05   8.9469820e-05  -5.9541003e-05   1.4571142e-04   4.8904233e-05   4.0063479e-05  -1.9066525e-04  -9.4007319e-05  -5.5647536e-05   1.4826311e-05  -1.3958421e-04  -2.6213562e-05   5.7498074e-05  -5.3765402e-05  -1.8691005e-04  -7.1454633e-05  -1.1002323e-05  -6.1414364e-05  -2.1300945e-05  -1.4068593e-05   6.9118047e-06  -1.3761023e-05   5.4404269e-05   6.8758154e-05   3.7023680e-06  -5.4286035e-06   1.3056027e-05   1.1146484e-05   2.3197079e-04  -1.0399741e-04  -3.5684805e-04   6.9864294e-05   3.6187372e-05   3.4854946e-05   4.9517855e-05  -2.0272660e-04  -4.6122089e-04  -1.4924933e-04   1.7458691e-04   2.1263248e-04   8.4439254e-05   2.9811162e-04   2.1198155e-04   2.1991413e-04  -3.9719829e-05  -1.4160932e-04   1.2494129e-04   2.9340481e-04   7.6123567e-05   3.1813137e-04   7.0107498e-04  -5.9566953e-05   3.5805024e-05  -1.7108686e-04  -6.1398852e-05  -2.0525732e-04   1.7114741e-04   2.0314611e-04   1.0709796e-04   8.7458737e-05   5.3932590e-04   2.3977325e-04   2.9969334e-04   3.5220636e-04   2.2147959e-04   1.3183437e-04   5.4163174e-04  -5.6469299e-05   2.0074557e-04   5.7022056e-04   5.5164277e-04   1.2923410e-04   1.8552522e-04  -2.6841937e-04  -1.0696884e-04   1.8422151e-04  -1.9687654e-04  -1.2044358e-04  -8.5714988e-05  -1.7237220e-04  -1.0536808e-04  -1.7209331e-04  -2.8380024e-05  -1.4903808e-05  -4.8336582e-05  -1.7899391e-04  -1.9054145e-04  -2.1311813e-04  -1.4160491e-04  -7.7450407e-05  -4.2172667e-05  -2.1020788e-04  -1.5647012e-04  -1.6132183e-04  -1.8447865e-04  -1.9082592e-04  -1.5643594e-04  -1.4635547e-04  -1.4454337e-04  -1.2660123e-04  -1.6906194e-04  -1.9092367e-04  -1.5196858e-04  -1.6384241e-04  -1.3099439e-04  -2.2838936e-05   3.6100777e-05  -1.7614170e-04  -1.4323657e-04  -8.0955960e-05  -1.2237506e-04  -1.4014445e-05   6.9623315e-05  -5.5486920e-05  -1.3085178e-04  -8.8877410e-05   5.3828958e-05  -5.7644179e-05   3.6733423e-05  -1.2707571e-05  -3.5331780e-05  -1.6463260e-04  -3.0996489e-05   3.0198450e-06  -9.3528604e-05  -1.4739100e-04   1.5965767e-04   4.2176048e-06  -5.8181791e-05  -4.7100969e-05  -2.6476969e-05  -8.2387934e-05  -1.2444440e-04  -1.6419875e-04  -6.6801516e-05   6.3649396e-07   1.3702959e-04   2.0898793e-05   1.0720358e-04  -2.9034083e-05  -7.7897812e-05   2.4422605e-06   4.0251419e-05  -1.6133639e-04  -1.0784231e-04   7.2201348e-06  -5.7985049e-05  -5.8940678e-06   2.8540305e-05  -6.7912865e-05  -1.3001179e-04  -6.0915967e-05  -3.6547940e-05   6.2635963e-06  -2.2499426e-05  -1.6487693e-04  -4.5004097e-05  -1.1310420e-04  -8.5298800e-06  -7.1521280e-06  -5.7933992e-05  -1.0516917e-04  -1.9171653e-04  -1.0556120e-04  -1.4818133e-04  -2.7841952e-05  -2.1823075e-05  -1.4324745e-04  -7.8754882e-05  -1.0659428e-04  -1.0492098e-04  -9.3192901e-05  -8.6992898e-05  -6.4468303e-05  -6.9193336e-05  -4.8021886e-05  -9.8757849e-05  -1.0702192e-04  -8.5074104e-05  -6.2601964e-05  -5.7554224e-05  -1.9259855e-05  -2.5230338e-05  -9.8902095e-05  -8.0582509e-05  -3.3097466e-05  -5.2592756e-05  -1.4221156e-05  -8.9959457e-05  -2.9292540e-05  -2.2492147e-04  -1.4001631e-04   3.7991383e-04  -3.6732813e-05  -3.6701325e-05  -2.7001677e-04   3.4237642e-05  -1.2608684e-04  -1.6830909e-05  -8.9676746e-05  -3.6346111e-04  -3.9145158e-04  -7.1046655e-05  -5.5742155e-05  -8.5830930e-05  -9.5084494e-05  -1.8854449e-04  -2.6757705e-04  -2.6062059e-04  -2.8777784e-04  -1.7059444e-04  -1.8666135e-04  -2.2082747e-04  -1.2162420e-04  -1.0722664e-04  -2.7877754e-04  -3.2230931e-04  -2.4637476e-04  -4.4638679e-05  -7.4043586e-05   1.1551714e-04  -4.0836601e-04  -2.7456172e-04  -1.4963497e-04  -2.2385770e-04  -2.2331332e-05   4.3028801e-05   1.1966350e-04  -2.8784510e-04  -2.0103846e-04  -2.7212540e-04  -3.3482925e-04  -1.2154514e-04  -3.4588839e-04  -3.3652305e-04  -1.1984207e-04  -2.9631129e-04  -3.2267388e-04  -4.5144425e-04  -3.9065867e-04  -2.2350039e-04  -4.3761482e-04  -2.0035867e-04  -4.7579085e-04  -3.7419102e-04  -3.1629726e-04  -3.4241605e-04  -3.7027481e-04  -3.9880570e-04  -2.4815957e-04  -4.6261529e-04  -2.2555425e-04  -2.2170056e-04  -4.1815640e-04  -2.9978008e-04  -2.7301195e-04  -2.9351546e-04  -5.2016697e-05  -2.6939769e-04  -3.8579911e-04  -2.5866581e-04  -1.7180207e-04  -2.2847254e-04  -1.6387694e-04  -1.5781086e-04  -2.5787895e-04  -9.9134801e-05   2.4804564e-05   4.4140154e-05  -9.8719619e-05  -3.6238136e-05  -7.2860324e-05  -2.7064422e-04  -5.0438890e-04  -1.1655624e-04  -4.3434784e-06  -1.0650437e-04  -3.5255299e-05   1.1213630e-06  -2.7611267e-04  -2.0485546e-04  -1.8236640e-04  -1.2847407e-04  -4.3851119e-05  -1.1855801e-05   1.4603709e-05  -3.2285215e-05  -3.5711387e-05   1.2480526e-04  -7.5457555e-05  -9.8706433e-06   6.2975588e-05  -5.8711726e-05  -3.3716077e-05  -1.4940606e-04  -4.6100858e-04  -3.4918826e-04  -2.8845762e-06  -7.7006619e-06   5.2177214e-06  -4.8366884e-05  -3.2312488e-04  -3.8865799e-04  -1.8123149e-04   3.1758009e-04   2.5491522e-04  -1.0818383e-05   1.1250704e-04   1.8458767e-05   1.3820497e-04   2.7073733e-05  -9.8917887e-05  -1.2328772e-04   1.3358193e-04   1.1593222e-04   2.3532824e-04  -2.2171761e-04  -1.9228742e-04  -2.6267046e-05   6.5535748e-05   7.4424293e-05   1.2422819e-04   2.1699168e-04   1.4362649e-04   3.4739247e-05   4.1041050e-05  -2.1866397e-04   1.0097361e-04   4.6303290e-05   1.2074728e-05   1.3065914e-04   1.0202061e-04  -5.6793490e-06   1.2940067e-04  -7.6247337e-05   1.7714451e-04   1.6052364e-04   1.2679049e-04   1.5787342e-04  -5.0339314e-05  -1.2665773e-04   3.1604792e-04   2.1187588e-04   1.9846855e-04   4.5004715e-04  -3.1054007e-04   5.8056953e-04   2.5074707e-04   1.9368100e-03   2.2507830e-03   3.8776405e-04   9.1103985e-05   1.5020027e-04   3.8714684e-04   1.2682079e-03   1.5175826e-03   7.0752820e-04   2.7132671e-04   7.7249904e-05   4.1284019e-04   4.1663804e-04   3.3908392e-04   4.8989813e-04   8.0522322e-04   3.0345379e-04   5.9095419e-04   1.3402444e-03   4.0702437e-04   7.2058363e-05   5.8242109e-04   2.3933771e-04   3.6027393e-03   2.9876349e-03   4.2212467e-04   1.0427189e-04  -1.7840391e-04   6.3723777e-04   1.5190530e-03   5.6990604e-03   1.9384608e-03   2.0078979e-04   5.0056135e-05  -1.9849727e-04   3.8084032e-04   1.4024905e-06   1.0842381e-04  -4.8628270e-04  -6.7008179e-05  -1.4536738e-04   2.1078161e-04  -1.3261615e-04   2.7328598e-04   1.7362128e-04  -2.7076242e-04  -2.0434765e-04   2.1037785e-04   2.3099254e-04   1.1017158e-04   4.2146495e-04   2.4176466e-04   1.5618266e-04   5.0166511e-05   1.4204229e-04   2.5057060e-04   3.9801043e-04   1.3674811e-04   2.6648136e-04   2.0921825e-04   4.7090826e-04  -8.2466649e-05  -2.3529428e-04   5.3742221e-04   3.5941028e-04   1.4530248e-04   2.9241270e-04  -1.2242149e-04  -1.5966980e-04  -3.0699664e-04
  -3.9832580e-05   2.6707455e-05   2.2250433e-05   1.7989232e-05   6.6441977e-05   8.1354713e-05   1.5623885e-04   4.6476024e-05  -2.8324745e-05  -1.1781222e-06  -7.3761943e-06  -2.7503287e-06   1.9313557e-04   1.8273683e-04   2.9833300e-05  -7.6593416e-06  -3.1282535e-06   2.4010909e-05  -1.9645960e-05   1.7752261e-05   5.3130238e-05   6.1473238e-05   1.9049425e-04   3.6807610e-05   1.2680796e-04   6.8568782e-05   1.2846998e-05   3.6488158e-05   8.9034971e-05   7.6972106e-05   1.3872145e-04   9.1320712e-05   7.2320506e-05  -8.9207345e-06   5.0684468e-05   3.7074565e-05   1.5460868e-04   8.9667192e-05   2.1511835e-05   8.7656333e-05  -7.4984400e-05   1.5066930e-04   5.0188269e-05   3.5389774e-05  -2.3540318e-04  -1.0811142e-04  -5.6935429e-05   1.3851809e-05  -1.3759838e-04  -3.2020435e-05   6.3188800e-05  -7.5442491e-05  -2.1021433e-04  -7.1844652e-05  -3.1635520e-06  -6.0959116e-05  -2.2417312e-05  -1.7135098e-05   7.9668644e-06  -1.3430982e-05   6.2023300e-05   7.1173805e-05  -3.1352882e-06  -9.7373558e-06   1.3828999e-05   5.5094272e-06   2.4610841e-04  -1.1529958e-04  -3.9158703e-04   6.3850265e-05   3.5707889e-05   3.6260772e-05   4.6249667e-05  -2.1885872e-04  -5.2096776e-04  -1.8591606e-04   2.3180966e-04   2.2886977e-04   1.2454794e-04   3.0314957e-04   2.1295964e-04   2.6206127e-04  -1.1717512e-04  -2.0601328e-04   1.4028726e-04   3.2066806e-04   8.2688081e-05   3.9288354e-04   7.5245125e-04  -1.1421594e-04   6.5913176e-06  -1.5561954e-04  -2.0395950e-05  -1.7959053e-04   2.4004208e-04   2.4644344e-04   1.1173347e-04   1.0151933e-04   5.9656746e-04   2.8456007e-04   3.6013493e-04   4.1970330e-04   2.5804794e-04   1.5899699e-04   6.3462150e-04  -7.5668397e-05   1.6743716e-04   6.5065200e-04   6.3779086e-04   1.6189135e-04   2.2773462e-04  -2.9430990e-04  -2.0490148e-04   1.6573744e-04  -2.0367584e-04  -1.3019268e-04  -8.8111832e-05  -1.7687304e-04  -1.1552014e-04  -1.8549717e-04  -5.2705111e-05  -2.5921350e-05  -4.9469461e-05  -1.8554586e-04  -1.9594189e-04  -2.2219450e-04  -1.6199361e-04  -9.8030948e-05  -5.0217534e-05  -2.1663422e-04  -1.6313850e-04  -1.6916786e-04  -1.9092294e-04  -1.9989356e-04  -1.6426720e-04  -1.5884975e-04  -1.6953967e-04  -1.3632853e-04  -1.8459378e-04  -2.0107160e-04  -1.5256095e-04  -1.6954729e-04  -1.3531236e-04  -3.1693646e-05   2.1830560e-05  -1.8664708e-04  -1.4889559e-04  -7.8855441e-05  -1.2585005e-04  -1.9037433e-05   5.3560587e-05  -6.0506474e-05  -1.4357986e-04  -9.8497733e-05   4.6935523e-05  -6.9150024e-05   2.7817491e-05  -2.5662941e-05  -4.4370791e-05  -1.7158613e-04  -3.4723313e-05  -1.2567878e-05  -9.8151695e-05  -1.5882816e-04   1.4440592e-04  -1.1863286e-05  -6.4733654e-05  -6.0913452e-05  -3.7829047e-05  -9.0922494e-05  -1.3472984e-04  -1.7231882e-04  -7.4221136e-05  -3.5432240e-06   1.3082267e-04   9.2025356e-06   9.0422120e-05  -4.6459887e-05  -9.2089069e-05  -1.4003464e-05   2.1189286e-05  -1.7892349e-04  -1.2705039e-04  -1.3842989e-05  -8.3877609e-05  -1.5728467e-05   1.5828108e-05  -8.1863417e-05  -1.4747566e-04  -8.6985347e-05  -3.3166507e-05   3.1015560e-06  -2.6811233e-05  -1.6648836e-04  -5.1273593e-05  -1.2067427e-04  -2.5795862e-05  -1.5311817e-05  -5.7401078e-05  -1.0572948e-04  -1.9556679e-04  -1.0768366e-04  -1.5617860e-04  -4.3358457e-05  -2.6782181e-05  -1.4167136e-04  -7.9526037e-05  -1.0999669e-04  -1.0710073e-04  -9.8725634e-05  -8.8946784e-05  -6.7160002e-05  -7.8010485e-05  -4.8895837e-05  -1.0452590e-04  -1.1034556e-04  -8.5106136e-05  -6.3268943e-05  -6.2561212e-05  -2.9226422e-05  -4.3416439e-05  -1.0628204e-04  -8.6755137e-05  -3.3730819e-05  -5.5496866e-05  -2.1889584e-05  -1.0614816e-04  -3.4663302e-05  -2.3247763e-04  -1.4299965e-04   3.8605445e-04  -3.2242916e-05  -3.3755618e-05  -2.9761817e-04   8.0768388e-05  -1.0654969e-04  -1.3320479e-05  -9.4733810e-05  -3.9627043e-04  -4.1675403e-04  -6.8903158e-05  -4.1659928e-05  -7.9618616e-05  -8.9468615e-05  -2.0469160e-04  -2.8867916e-04  -2.8182120e-04  -3.1095132e-04  -1.8583515e-04  -1.9892460e-04  -2.5495871e-04  -1.2689720e-04  -1.3577039e-04  -3.1374871e-04  -3.4274110e-04  -2.6512349e-04  -6.3017159e-05  -5.3499349e-05   1.5663382e-04  -4.4900600e-04  -3.1191241e-04  -1.6146236e-04  -2.4644050e-04  -1.6128051e-05   6.2988681e-05   1.4328505e-04  -2.9324573e-04  -2.0419836e-04  -2.8258524e-04  -3.6284403e-04  -1.3294063e-04  -3.5595315e-04  -3.5280227e-04  -1.1263471e-04  -2.9488399e-04  -3.3425825e-04  -4.5880206e-04  -3.9705641e-04  -2.2779335e-04  -4.5964127e-04  -2.0674600e-04  -4.8085636e-04  -3.9034020e-04  -3.2633966e-04  -3.4433465e-04  -3.7504322e-04  -4.1424390e-04  -2.4834920e-04  -4.8537565e-04  -2.3380489e-04  -2.3743292e-04  -4.3159252e-04  -3.0336938e-04  -2.8521130e-04  -3.0440643e-04  -4.8591518e-05  -2.8322369e-04  -4.1134110e-04  -2.7287500e-04  -1.7535511e-04  -2.3719449e-04  -1.7224601e-04  -1.5406749e-04  -2.6307385e-04  -9.6178851e-05   2.8206473e-05   4.3655022e-05  -1.1396436e-04  -4.6270571e-05  -8.0627490e-05  -2.8282383e-04  -5.1407286e-04  -1.1306853e-04  -2.3635426e-05  -1.0464566e-04  -3.4788440e-05  -3.4241293e-05  -3.0113165e-04  -2.0956927e-04  -2.0517192e-04  -1.4814284e-04  -5.9330432e-05  -1.9476406e-05   1.1193116e-05  -4.6208651e-05  -5.4488001e-05   8.6848700e-05  -8.6926640e-05  -2.5687868e-05   4.1222933e-05  -7.1582295e-05  -4.2488901e-05  -1.7032221e-04  -4.7950096e-04  -3.6126720e-04  -1.4742395e-05  -2.1639468e-05   2.6236406e-06  -5.3934421e-05  -3.4124551e-04  -4.0477953e-04  -1.8864840e-04   3.2035175e-04   2.5439812e-04  -7.4704463e-07   1.0563623e-04   9.8974111e-06   1.3022355e-04   6.8030190e-06  -1.2405338e-04  -1.2856473e-04   1.2768971e-04   1.1207557e-04   2.3218142e-04  -2.4568505e-04  -2.2432040e-04  -3.7641908e-05   6.1772117e-05   7.2255894e-05   1.2340672e-04   2.1974327e-04   1.3618665e-04   2.5401082e-05   3.2216098e-05  -2.3425185e-04   9.3174442e-05   5.0647518e-05   2.6057031e-07   1.2538431e-04   1.0027091e-04  -1.2067423e-05   1.2365667e-04  -9.3259836e-05   1.7611229e-04   1.5783891e-04   1.3211238e-04   1.6021247e-04  -5.7632229e-05  -1.4064590e-04   3.3349809e-04   2.6853031e-04   2.5524254e-04   5.2221132e-04  -2.2664671e-04   6.1316763e-04   2.9301192e-04   2.1625031e-03   2.3605839e-03   4.7031474e-04   1.5719920e-04   1.9459245e-04   4.3639241e-04   1.3557231e-03   1.7002936e-03   7.4910495e-04   3.3100942e-04   1.1278004e-04   4.6271187e-04   4.8806105e-04   4.0140216e-04   5.4560138e-04   8.4307600e-04   4.0489639e-04   6.5103457e-04   1.4029261e-03   4.9500259e-04   1.3250599e-04   6.5927441e-04   3.3506393e-04   3.7740530e-03   3.1839406e-03   5.0882557e-04   1.8824629e-04  -1.1575712e-04   6.9607763e-04   1.6322707e-03   5.9330943e-03   2.0331365e-03   2.1131858e-04   5.9635548e-05  -1.2921719e-04   4.0485993e-04   1.8055336e-05   1.2040033e-04  -4.7406146e-04  -5.1644126e-05  -1.1331607e-04   2.2016571e-04  -1.3101096e-04   2.7731341e-04   2.3579158e-04  -2.5408012e-04  -1.9892835e-04   2.3927116e-04   2.4178520e-04   1.3234041e-04   4.4094627e-04   2.5828165e-04   1.8009751e-04   6.9125466e-05   1.6259557e-04   2.7476103e-04   4.4227635e-04   1.6008667e-04   2.7872190e-04   2.3088022e-04   5.1066335e-04  -9.5931417e-05  -2.4456110e-04   5.6673046e-04   3.8108331e-04   1.5847564e-04   3.1399049e-04  -1.1261592e-04  -1.8338394e-04  -2.9507401e-04
  -5.5785451e-05   1.7656238e-05   1.7501013e-05   2.3237705e-06   5.9733304e-05   6.5490086e-05   1.5160745e-04   3.6034677e-05  -3.5314834e-05  -1.3474817e-05  -3.2490573e-05  -2.3216148e-05   1.8500779e-04   1.7712053e-04   2.1039948e-05  -2.5245973e-05  -1.4209009e-05   8.4519307e-06  -3.6186521e-05   3.3702096e-07   3.7446597e-05   5.2822851e-05   1.8203986e-04   2.8949330e-05   1.1844275e-04   5.2499692e-05  -3.0974678e-06   2.4992203e-05   8.0522687e-05   6.9709848e-05   1.3725336e-04   8.0008744e-05   6.3544838e-05  -1.3168121e-05   4.4398883e-05   3.3350648e-05   1.4572931e-04   8.4466953e-05   1.3281353e-05   8.4327337e-05  -8.9497794e-05   1.5355039e-04   5.2663745e-05   2.9555813e-05  -2.7919064e-04  -1.1942133e-04  -5.7427453e-05   9.8736370e-06  -1.3464338e-04  -3.9944889e-05   6.9525217e-05  -9.6521222e-05  -2.3131634e-04  -7.2424811e-05   3.4694530e-06  -5.9165105e-05  -2.4005669e-05  -2.0296349e-05   1.0404775e-05  -1.1923555e-05   7.0918400e-05   7.4550066e-05  -8.2130526e-06  -1.2996124e-05   1.3663790e-05  -4.5701631e-07   2.5974726e-04  -1.2361003e-04  -4.2180438e-04   5.8543469e-05   3.5304911e-05   3.6736386e-05   4.3342373e-05  -2.3067345e-04  -5.7359739e-04  -2.2091981e-04   2.9161457e-04   2.4534090e-04   1.6079374e-04   3.0249456e-04   2.1089986e-04   3.0281242e-04  -2.0359069e-04  -2.7207179e-04   1.5190368e-04   3.4070600e-04   8.9193267e-05   4.6567647e-04   7.8891875e-04  -1.7434024e-04  -2.4141625e-05  -1.3966249e-04   1.8911102e-05  -1.4932328e-04   3.0915779e-04   2.8789090e-04   1.1335826e-04   1.1731738e-04   6.4890610e-04   3.3027056e-04   4.1889117e-04   4.8770213e-04   2.9590614e-04   1.8763081e-04   7.1838033e-04  -1.0137527e-04   1.2793957e-04   7.2429342e-04   7.1835297e-04   1.9470842e-04   2.7218036e-04  -3.1816288e-04  -2.9430037e-04   1.5092161e-04  -2.0764617e-04  -1.3812574e-04  -8.9988514e-05  -1.7840905e-04  -1.2355784e-04  -1.9626921e-04  -7.7863715e-05  -3.7650355e-05  -5.0156375e-05  -1.8932301e-04  -1.9803716e-04  -2.2828810e-04  -1.8031806e-04  -1.1846658e-04  -5.8190015e-05  -2.2004545e-04  -1.6743189e-04  -1.7443723e-04  -1.9492913e-04  -2.0619666e-04  -1.6987605e-04  -1.6875256e-04  -1.9258242e-04  -1.4444231e-04  -1.9704150e-04  -2.0848322e-04  -1.5100487e-04  -1.7294862e-04  -1.3768290e-04  -4.0273624e-05   6.4842375e-06  -1.9462198e-04  -1.5263191e-04  -7.5758499e-05  -1.2766004e-04  -2.3743654e-05   3.6290173e-05  -6.3551764e-05  -1.5501654e-04  -1.0619426e-04   3.9868810e-05  -8.0332899e-05   1.8854978e-05  -3.7475965e-05  -5.5841421e-05  -1.7767839e-04  -3.7995565e-05  -2.7918027e-05  -1.0121090e-04  -1.6787487e-04   1.2629122e-04  -3.0267518e-05  -7.1145287e-05  -7.3600121e-05  -4.8108719e-05  -9.8127671e-05  -1.4235354e-04  -1.7736244e-04  -7.9750647e-05  -7.3905609e-06   1.2468529e-04  -2.2579965e-06   7.3803198e-05  -6.2943655e-05  -1.0497856e-04  -3.0234921e-05   2.6249622e-06  -1.9556907e-04  -1.4686146e-04  -3.3196131e-05  -1.0736317e-04  -2.5238548e-05   3.8189862e-06  -9.5433448e-05  -1.6461661e-04  -1.1387844e-04  -2.7893615e-05   6.1902804e-07  -3.1146486e-05  -1.6568502e-04  -5.6391979e-05  -1.2610411e-04  -4.1950895e-05  -2.2324919e-05  -5.6094342e-05  -1.0397653e-04  -1.9617638e-04  -1.0731951e-04  -1.6210966e-04  -5.7529387e-05  -3.0821476e-05  -1.3761195e-04  -7.8393533e-05  -1.1137127e-04  -1.0742818e-04  -1.0229378e-04  -8.9198427e-05  -6.8324150e-05  -8.5814119e-05  -4.8816437e-05  -1.0845037e-04  -1.1175122e-04  -8.3561157e-05  -6.2432586e-05  -6.6475949e-05  -3.8440887e-05  -6.0967108e-05  -1.1239006e-04  -9.1179086e-05  -3.4031133e-05  -5.7656906e-05  -2.8735170e-05  -1.2170502e-04  -3.9796799e-05  -2.3500284e-04  -1.4221556e-04   3.8920035e-04  -2.9044711e-05  -3.0267083e-05  -3.2326119e-04   1.2958087e-04  -7.9997209e-05  -1.0458578e-05  -1.0115078e-04  -4.2630590e-04  -4.3740440e-04  -7.1535956e-05  -2.9847721e-05  -7.1309596e-05  -8.2849586e-05  -2.1758089e-04  -3.0603783e-04  -3.0023455e-04  -3.3043101e-04  -1.9987555e-04  -2.0936427e-04  -2.8879179e-04  -1.3197959e-04  -1.6560932e-04  -3.4597879e-04  -3.5958700e-04  -2.8130979e-04  -8.1749424e-05  -2.0759155e-05   2.0535936e-04  -4.8320136e-04  -3.4486819e-04  -1.7132232e-04  -2.6629225e-04  -5.5259510e-06   8.8033437e-05   1.6732996e-04  -2.9502561e-04  -2.0403367e-04  -2.9025857e-04  -3.8613757e-04  -1.4296800e-04  -3.6244158e-04  -3.6438102e-04  -1.0242470e-04  -2.8956373e-04  -3.4322363e-04  -4.6336337e-04  -3.9932806e-04  -2.3119559e-04  -4.7707799e-04  -2.1088738e-04  -4.8206535e-04  -4.0306988e-04  -3.3474796e-04  -3.4318917e-04  -3.7695975e-04  -4.2580097e-04  -2.4759827e-04  -5.0458219e-04  -2.4154591e-04  -2.5293430e-04  -4.4156883e-04  -3.0434190e-04  -2.9522668e-04  -3.1327294e-04  -4.3357916e-05  -2.9374381e-04  -4.3333148e-04  -2.8387815e-04  -1.7789341e-04  -2.4401339e-04  -1.7857309e-04  -1.4750872e-04  -2.6558434e-04  -8.7304544e-05   3.2890488e-05   4.3650531e-05  -1.2592371e-04  -5.6863667e-05  -8.7352320e-05  -2.9978498e-04  -5.2406019e-04  -1.0995037e-04  -4.2338049e-05  -1.0221650e-04  -3.2146714e-05  -7.5097238e-05  -3.3024711e-04  -2.1691892e-04  -2.2735289e-04  -1.6584252e-04  -7.5238597e-05  -2.7676280e-05   7.8029865e-06  -6.1906567e-05  -7.3359353e-05   4.2484867e-05  -9.6679806e-05  -4.2475428e-05   1.7171189e-05  -8.3880527e-05  -4.9298836e-05  -1.8678135e-04  -4.9896017e-04  -3.8002064e-04  -2.4564307e-05  -3.3680061e-05   6.1039407e-07  -5.7683852e-05  -3.6063354e-04  -4.3283311e-04  -1.9812267e-04   3.2058073e-04   2.5110693e-04   9.2122404e-06   9.9461961e-05   1.3296062e-06   1.2220417e-04  -1.2931320e-05  -1.5052266e-04  -1.3172780e-04   1.2096594e-04   1.0888888e-04   2.2795044e-04  -2.6844478e-04  -2.5373699e-04  -4.7260365e-05   5.7148683e-05   6.9729629e-05   1.1991338e-04   2.1849097e-04   1.2762838e-04   1.4917042e-05   2.3894229e-05  -2.4474998e-04   8.4585234e-05   5.5322770e-05  -1.1666871e-05   1.1752834e-04   9.7461785e-05  -1.9016657e-05   1.1332432e-04  -1.0822650e-04   1.7323846e-04   1.5303039e-04   1.3554466e-04   1.5978513e-04  -6.5952865e-05  -1.5465874e-04   3.4607558e-04   3.2038489e-04   3.0786728e-04   5.9141793e-04  -1.3848082e-04   6.4258764e-04   3.2968833e-04   2.3599316e-03   2.4329702e-03   5.4712181e-04   2.2091001e-04   2.3594201e-04   4.7595811e-04   1.4363585e-03   1.8559851e-03   7.7500931e-04   3.8788728e-04   1.4711730e-04   5.0268443e-04   5.4803537e-04   4.5527089e-04   5.9618657e-04   8.7258949e-04   5.0204291e-04   7.0421716e-04   1.4553115e-03   5.7306291e-04   1.9032403e-04   7.2948640e-04   4.2829926e-04   3.8871435e-03   3.3412306e-03   5.8626445e-04   2.6482293e-04  -5.3539157e-05   7.4571682e-04   1.7229792e-03   6.0846712e-03   2.0996265e-03   2.2082534e-04   7.0881220e-05  -5.5362058e-05   4.2941120e-04   3.3675989e-05   1.3224748e-04  -4.4556143e-04  -3.4592074e-05  -7.7126438e-05   2.2814290e-04  -1.2466238e-04   2.8059412e-04   2.9678793e-04  -2.2775968e-04  -1.8873231e-04   2.6916624e-04   2.5281882e-04   1.5480258e-04   4.5655413e-04   2.7571575e-04   2.0370538e-04   8.9587627e-05   1.8362495e-04   2.9842090e-04   4.8290985e-04   1.8240523e-04   2.8870380e-04   2.5193594e-04   5.4639122e-04  -1.0580966e-04  -2.4338440e-04   5.9192386e-04   3.9899486e-04   1.7076129e-04   3.3138847e-04  -1.0045781e-04  -2.0631932e-04  -2.7755055e-04
  -7.1634517e-05   8.1248371e-06   1.2053623e-05  -1.4258093e-05   5.1925958e-05   4.8283869e-05   1.4595662e-04   2.5515554e-05  -4.2144718e-05  -2.6405690e-05  -5.7962752e-05  -4.4008406e-05   1.7424161e-04   1.6952091e-04   1.2752827e-05  -4.3467257e-05  -2.6638680e-05  -7.7380864e-06  -5.2829555e-05  -1.7636550e-05   2.1020205e-05   4.3063683e-05   1.7131305e-04   2.0231826e-05   1.0809576e-04   3.5325446e-05  -1.9399736e-05   1.2535496e-05   6.9841624e-05   6.1287825e-05   1.3531776e-04   6.6982428e-05   5.3266872e-05  -1.7650792e-05   3.6983109e-05   2.9070706e-05   1.3620407e-04   7.7774886e-05   3.4131321e-06   7.9764500e-05  -1.0231414e-04   1.5410042e-04   5.6332182e-05   2.2595552e-05  -3.1954549e-04  -1.2648733e-04  -5.7004682e-05   2.7145249e-06  -1.3129550e-04  -5.0086120e-05   7.6421690e-05  -1.1586811e-04  -2.4933456e-04  -7.3330673e-05   8.4198666e-06  -5.6307877e-05  -2.6209940e-05  -2.3628762e-05   1.4194118e-05  -9.4232298e-06   8.0596694e-05   7.8924178e-05  -1.1311996e-05  -1.5286675e-05   1.2480596e-05  -6.6522523e-06   2.7252820e-04  -1.2765358e-04  -4.4513667e-04   5.4143888e-05   3.4860020e-05   3.6296732e-05   4.1015797e-05  -2.3726102e-04  -6.1585998e-04  -2.5301101e-04   3.5163011e-04   2.6156676e-04   1.9211464e-04   2.9603909e-04   2.0634233e-04   3.4098113e-04  -2.9243838e-04  -3.3499948e-04   1.5979780e-04   3.5262395e-04   9.6618921e-05   5.3305548e-04   8.0966123e-04  -2.3606833e-04  -5.3367197e-05  -1.2315745e-04   5.4768912e-05  -1.1522270e-04   3.7535284e-04   3.2606076e-04   1.1228123e-04   1.3507145e-04   6.9487086e-04   3.7571532e-04   4.7443928e-04   5.5367038e-04   3.3382695e-04   2.1688744e-04   7.8793473e-04  -1.3221960e-04   8.5925426e-05   7.8828145e-04   7.9010358e-04   2.2677731e-04   3.1760336e-04  -3.3821274e-04  -3.6692939e-04   1.4239302e-04  -2.0870430e-04  -1.4395327e-04  -9.1257578e-05  -1.7704250e-04  -1.2913921e-04  -2.0408250e-04  -1.0290110e-04  -4.9707033e-05  -5.0424748e-05  -1.9029412e-04  -1.9679332e-04  -2.3125512e-04  -1.9593632e-04  -1.3807239e-04  -6.5815426e-05  -2.2042241e-04  -1.6927397e-04  -1.7702280e-04  -1.9646215e-04  -2.0956735e-04  -1.7314875e-04  -1.7572152e-04  -2.1302760e-04  -1.5068178e-04  -2.0597461e-04  -2.1306794e-04  -1.4744378e-04  -1.7401833e-04  -1.3813319e-04  -4.8249726e-05  -9.2223511e-06  -1.9986496e-04  -1.5447479e-04  -7.1887079e-05  -1.2780907e-04  -2.7925294e-05   1.8849291e-05  -6.4410211e-05  -1.6475425e-04  -1.1160898e-04   3.2856247e-05  -9.1006155e-05   1.0097911e-05  -4.7629994e-05  -6.9553211e-05  -1.8292707e-04  -4.0651539e-05  -4.2293563e-05  -1.0272187e-04  -1.7424891e-04   1.0583334e-04  -5.0469323e-05  -7.7190339e-05  -8.4684213e-05  -5.6914025e-05  -1.0389565e-04  -1.4709147e-04  -1.7919820e-04  -8.3250221e-05  -1.0909683e-05   1.1915424e-04  -1.3042840e-05   5.7949329e-05  -7.7911217e-05  -1.1617332e-04  -4.5743936e-05  -1.4862088e-05  -2.1086297e-04  -1.6648341e-04  -5.0068128e-05  -1.2760728e-04  -3.4077471e-05  -7.0566972e-06  -1.0818678e-04  -1.8104748e-04  -1.4100406e-04  -2.0717131e-05  -8.4539377e-07  -3.5349805e-05  -1.6257428e-04  -6.0053791e-05  -1.2913126e-04  -5.6526549e-05  -2.7996324e-05  -5.4136384e-05  -1.0000161e-04  -1.9353275e-04  -1.0438464e-04  -1.6583201e-04  -6.9983602e-05  -3.3823092e-05  -1.3128668e-04  -7.5354654e-05  -1.1058709e-04  -1.0580441e-04  -1.0366972e-04  -8.7670135e-05  -6.7859052e-05  -9.2205884e-05  -4.7712906e-05  -1.1034470e-04  -1.1110098e-04  -8.0391818e-05  -6.0049091e-05  -6.9065512e-05  -4.6703900e-05  -7.7497445e-05  -1.1693830e-04  -9.3614588e-05  -3.3962098e-05  -5.9002112e-05  -3.4509621e-05  -1.3651125e-04  -4.4602594e-05  -2.3239289e-04  -1.3773614e-04   3.8971946e-04  -2.7595260e-05  -2.6518677e-05  -3.4643487e-04   1.7915614e-04  -4.6843253e-05  -8.4106485e-06  -1.0896277e-04  -4.5270578e-04  -4.5297709e-04  -7.9583641e-05  -2.1116538e-05  -6.1103581e-05  -7.5482180e-05  -2.2652078e-04  -3.1910292e-04  -3.1547048e-04  -3.4577409e-04  -2.1248499e-04  -2.1775275e-04  -3.2141373e-04  -1.3699234e-04  -1.9574229e-04  -3.7459288e-04  -3.7254508e-04  -2.9446544e-04  -1.0030472e-04   2.4271529e-05   2.6066321e-04  -5.0983727e-04  -3.7237437e-04  -1.7874267e-04  -2.8272752e-04   9.6974042e-06   1.1796911e-04   1.9106678e-04  -2.9314543e-04  -2.0075531e-04  -2.9497540e-04  -4.0373080e-04  -1.5118543e-04  -3.6534971e-04  -3.7099570e-04  -8.9510037e-05  -2.8062056e-04  -3.4926042e-04  -4.6523314e-04  -3.9755349e-04  -2.3349333e-04  -4.8956621e-04  -2.1270411e-04  -4.7961543e-04  -4.1207881e-04  -3.4138838e-04  -3.3914579e-04  -3.7614541e-04  -4.3316814e-04  -2.4615407e-04  -5.1994516e-04  -2.4867131e-04  -2.6773695e-04  -4.4776935e-04  -3.0263688e-04  -3.0272630e-04  -3.1987393e-04  -3.6529232e-05  -3.0090870e-04  -4.5110324e-04  -2.9127432e-04  -1.7926514e-04  -2.4875667e-04  -1.8278461e-04  -1.3857838e-04  -2.6538100e-04  -7.2224615e-05   3.8923459e-05   4.4208262e-05  -1.3365382e-04  -6.7689966e-05  -9.2753415e-05  -3.2345318e-04  -5.3602705e-04  -1.0761070e-04  -5.9068381e-05  -9.9275584e-05  -2.7129635e-05  -1.2027414e-04  -3.6407942e-04  -2.2826521e-04  -2.4775434e-04  -1.8046399e-04  -9.0719362e-05  -3.5861624e-05   4.8488941e-06  -7.8675853e-05  -9.1438641e-05  -6.7131210e-06  -1.0411750e-04  -5.9549496e-05  -8.0350643e-06  -9.4988975e-05  -5.3641509e-05  -1.9755895e-04  -5.2030235e-04  -4.0784232e-04  -3.1915125e-05  -4.3198193e-05  -6.0271361e-07  -5.9590355e-05  -3.8177660e-04  -4.7569851e-04  -2.1038430e-04   3.1876966e-04   2.4551874e-04   1.8612249e-05   9.4490087e-05  -6.7584158e-06   1.1468355e-04  -3.0991245e-05  -1.7747202e-04  -1.3275384e-04   1.1376508e-04   1.0663963e-04   2.2315208e-04  -2.8945256e-04  -2.7947088e-04  -5.4613414e-05   5.1643025e-05   6.6838139e-05   1.1378448e-04   2.1336525e-04   1.1828567e-04   3.3291500e-06   1.6381909e-05  -2.5005124e-04   7.5630271e-05   6.0017213e-05  -2.3331359e-05   1.0729070e-04   9.3634098e-05  -2.6596711e-05   9.8970296e-05  -1.2068301e-04   1.6856346e-04   1.4623824e-04   1.3693697e-04   1.5656725e-04  -7.5188126e-05  -1.6827100e-04   3.5376729e-04   3.6492396e-04   3.5393332e-04   6.5574547e-04  -5.0316931e-05   6.6820058e-04   3.5936622e-04   2.5258176e-03   2.4688218e-03   6.1569623e-04   2.7926244e-04   2.7268007e-04   5.0412975e-04   1.5089388e-03   1.9811337e-03   7.8590555e-04   4.3947352e-04   1.7875126e-04   5.3047837e-04   5.9323076e-04   4.9776563e-04   6.3928384e-04   8.9370889e-04   5.9204121e-04   7.4891004e-04   1.4981244e-03   6.3791282e-04   2.4185089e-04   7.9052285e-04   5.1480956e-04   3.9434175e-03   3.4588915e-03   6.5081736e-04   3.2948978e-04   4.4949138e-06   7.8515623e-04   1.7902135e-03   6.1598760e-03   2.1389518e-03   2.2973032e-04   8.4020320e-05   2.0184100e-05   4.5426773e-04   4.7627882e-05   1.4357809e-04  -4.0123992e-04  -1.6275043e-05  -3.8470671e-05   2.3472105e-04  -1.1418830e-04   2.8357703e-04   3.5398454e-04  -1.9285824e-04  -1.7441401e-04   2.9934346e-04   2.6385668e-04   1.7674705e-04   4.6834531e-04   2.9364004e-04   2.2592178e-04   1.1084530e-04   2.0415215e-04   3.2114949e-04   5.1874544e-04   2.0232351e-04   2.9612743e-04   2.7173953e-04   5.7731814e-04  -1.1080499e-04  -2.3048167e-04   6.1278202e-04   4.1270089e-04   1.8183168e-04   3.4434972e-04  -8.6673804e-05  -2.2725332e-04  -2.5478136e-04
  -8.6984360e-05  -1.6276044e-06   5.9509887e-06  -3.1446453e-05   4.3199575e-05   3.0137678e-05   1.3978590e-04   1.5594449e-05  -4.8653408e-05  -3.9776584e-05  -8.3168663e-05  -6.4626230e-05   1.6106522e-04   1.6025698e-04   5.3656433e-06  -6.1928932e-05  -4.0266807e-05  -2.4182656e-05  -6.9221869e-05  -3.5796718e-05   4.2512792e-06   3.2418510e-05   1.5848957e-04   1.0829419e-05   9.5982512e-05   1.7428023e-05  -3.5657603e-05  -5.7288021e-07   5.7208923e-05   5.2233270e-05   1.3330069e-04   5.2456143e-05   4.1663153e-05  -2.2330634e-05   2.8592865e-05   2.4411309e-05   1.2678911e-04   6.9923601e-05  -7.7047148e-06   7.4299619e-05  -1.1274572e-04   1.5215776e-04   6.1119930e-05   1.4583693e-05  -3.5376315e-04  -1.2779085e-04  -5.5510842e-05  -7.5768296e-06  -1.2814243e-04  -6.2435566e-05   8.3843163e-05  -1.3218720e-04  -2.6338976e-04  -7.4636351e-05   1.1305631e-05  -5.2760283e-05  -2.9177521e-05  -2.7218777e-05   1.9218916e-05  -6.1772922e-06   9.0523794e-05   8.4252833e-05  -1.2340538e-05  -1.6755759e-05   1.0248573e-05  -1.2979403e-05   2.8400444e-04  -1.2615691e-04  -4.5906871e-04   5.0710042e-05   3.4220641e-05   3.4995729e-05   3.9408565e-05  -2.3785405e-04  -6.4471795e-04  -2.8102955e-04   4.0932394e-04   2.7698830e-04   2.1791590e-04   2.8400709e-04   2.0002846e-04   3.7550985e-04  -3.7637767e-04  -3.8981052e-04   1.6436991e-04   3.5598211e-04   1.0611211e-04   5.9161640e-04   8.1474896e-04  -2.9510929e-04  -7.7952330e-05  -1.0589044e-04   8.5665364e-05  -7.8161022e-05   4.3543894e-04   3.5965579e-04   1.0898832e-04   1.5493568e-04   7.3322793e-04   4.1966883e-04   5.2544978e-04   6.1490336e-04   3.7043913e-04   2.4581602e-04   8.3912199e-04  -1.6637361e-04   4.5349157e-05   8.4021485e-04   8.5010002e-04   2.5723873e-04   3.6262769e-04  -3.5270220e-04  -4.1558308e-04   1.4241974e-04  -2.0685855e-04  -1.4746102e-04  -9.1815216e-05  -1.7294389e-04  -1.3203420e-04  -2.0872453e-04  -1.2682645e-04  -6.1674533e-05  -5.0297915e-05  -1.8853377e-04  -1.9230027e-04  -2.3105236e-04  -2.0833199e-04  -1.5616265e-04  -7.2800169e-05  -2.1785488e-04  -1.6869094e-04  -1.7692153e-04  -1.9556887e-04  -2.0993423e-04  -1.7405546e-04  -1.7954550e-04  -2.3035508e-04  -1.5484827e-04  -2.1113477e-04  -2.1483852e-04  -1.4207772e-04  -1.7280711e-04  -1.3675778e-04  -5.5306340e-05  -2.4509551e-05  -2.0227462e-04  -1.5452671e-04  -6.7479344e-05  -1.2635567e-04  -3.1388619e-05   2.3375828e-06  -6.2961582e-05  -1.7242900e-04  -1.1447825e-04   2.6091566e-05  -1.0099392e-04   1.7734472e-06  -5.5677369e-05  -8.5171003e-05  -1.8735004e-04  -4.2543487e-05  -5.4994190e-05  -1.0273275e-04  -1.7777135e-04   8.3619292e-05  -7.1841441e-05  -8.2623493e-05  -9.3771112e-05  -6.3929088e-05  -1.0817113e-04  -1.4885813e-04  -1.7783606e-04  -8.4674907e-05  -1.4123233e-05   1.1471475e-04  -2.2741665e-05   4.3382813e-05  -9.0859386e-05  -1.2536111e-04  -6.0071479e-05  -3.0793105e-05  -2.2445542e-04  -1.8511958e-04  -6.3841497e-05  -1.4397330e-04  -4.1944055e-05  -1.6446857e-05  -1.1971649e-04  -1.9641147e-04  -1.6780381e-04  -1.1717897e-05  -1.0009773e-06  -3.9253942e-05  -1.5734552e-04  -6.2014251e-05  -1.2958979e-04  -6.9124819e-05  -3.2212257e-05  -5.1669979e-05  -9.3998213e-05  -1.8774849e-04  -9.8910130e-05  -1.6726650e-04  -8.0445253e-05  -3.5710309e-05  -1.2299941e-04  -7.0496937e-05  -1.0759803e-04  -1.0220788e-04  -1.0272179e-04  -8.4347477e-05  -6.5727131e-05  -9.6828707e-05  -4.5546795e-05  -1.1009472e-04  -1.0832412e-04  -7.5605837e-05  -5.6133468e-05  -7.0131462e-05  -5.3889907e-05  -9.2660840e-05  -1.1969636e-04  -9.3916534e-05  -3.3495401e-05  -5.9486192e-05  -3.9029961e-05  -1.5040390e-04  -4.8995747e-05  -2.2476393e-04  -1.2980785e-04   3.8808653e-04  -2.8219219e-05  -2.2798782e-05  -3.6666332e-04   2.2793637e-04  -7.8366405e-06  -7.2492747e-06  -1.1806565e-04  -4.7463304e-04  -4.6321513e-04  -9.3325457e-05  -1.6056127e-05  -4.9260694e-05  -6.7564345e-05  -2.3096534e-04  -3.2744812e-04  -3.2723198e-04  -3.5668593e-04  -2.2344762e-04  -2.2390725e-04  -3.5189000e-04  -1.4202547e-04  -2.2509871e-04  -3.9884177e-04  -3.8144950e-04  -3.0423322e-04  -1.1811384e-04   8.1021142e-05   3.2101665e-04  -5.2815108e-04  -3.9366066e-04  -1.8333114e-04  -2.9521053e-04   2.9511699e-05   1.5234930e-04   2.1378952e-04  -2.8768317e-04  -1.9470015e-04  -2.9666085e-04  -4.1483316e-04  -1.5720973e-04  -3.6474474e-04  -3.7256940e-04  -7.4302835e-05  -2.6840468e-04  -3.5206580e-04  -4.6444119e-04  -3.9185158e-04  -2.3436004e-04  -4.9687719e-04  -2.1218529e-04  -4.7370878e-04  -4.1716343e-04  -3.4606619e-04  -3.3235806e-04  -3.7268329e-04  -4.3607624e-04  -2.4418324e-04  -5.3119051e-04  -2.5500446e-04  -2.8127963e-04  -4.4988461e-04  -2.9816862e-04  -3.0739437e-04  -3.2397309e-04  -2.8409215e-05  -3.0483428e-04  -4.6405611e-04  -2.9475150e-04  -1.7929710e-04  -2.5128461e-04  -1.8491931e-04  -1.2782629e-04  -2.6247359e-04  -5.0966043e-05   4.6296567e-05   4.5372284e-05  -1.3635326e-04  -7.8349392e-05  -9.6574755e-05  -3.5559850e-04  -5.5166653e-04  -1.0639393e-04  -7.2467868e-05  -9.5781772e-05  -1.9652991e-05  -1.6828291e-04  -4.0309300e-04  -2.4479837e-04  -2.6516327e-04  -1.9094081e-04  -1.0483282e-04  -4.3344077e-05   2.7850269e-06  -9.5647065e-05  -1.0782335e-04  -5.8826369e-05  -1.0870755e-04  -7.6140575e-05  -3.3098488e-05  -1.0428056e-04  -5.5112595e-05  -2.0164617e-04  -5.4440969e-04  -4.4668415e-04  -3.6489486e-05  -4.9694150e-05  -8.0968914e-07  -5.9714636e-05  -4.0504349e-04  -5.3528532e-04  -2.2601747e-04   3.1548407e-04   2.3819036e-04   2.7032460e-05   9.1120383e-05  -1.3931005e-05   1.0811183e-04  -4.6487417e-05  -2.0409596e-04  -1.3175411e-04   1.0640647e-04   1.0549938e-04   2.1827521e-04  -3.0828951e-04  -3.0078771e-04  -5.9399466e-05   4.5245890e-05   6.3548710e-05   1.0518386e-04   2.0469847e-04   1.0848951e-04  -9.3222037e-06   9.9008751e-06  -2.5037414e-04   6.6720294e-05   6.4356947e-05  -3.4402457e-05   9.4989686e-05   8.8836354e-05  -3.4882292e-05   8.1292704e-05  -1.3049580e-04   1.6218057e-04   1.3767326e-04   1.3624091e-04   1.5065244e-04  -8.5231051e-05  -1.8117086e-04   3.5681979e-04   3.9993953e-04   3.9129256e-04   7.1331200e-04   3.3593865e-05   6.8931509e-04   3.8093651e-04   2.6586404e-03   2.4708853e-03   6.7392578e-04   3.2947800e-04   3.0343813e-04   5.1969223e-04   1.5723682e-03   2.0740017e-03   7.8323910e-04   4.8338062e-04   2.0630284e-04   5.4437571e-04   6.2099493e-04   5.2638699e-04   6.7260223e-04   9.0649424e-04   6.7240617e-04   7.8381732e-04   1.5321490e-03   6.8689562e-04   2.8368933e-04   8.4018798e-04   5.9062543e-04   3.9474658e-03   3.5381886e-03   6.9941824e-04   3.7835543e-04   5.4829276e-05   8.1379953e-04   1.8341564e-03   6.1692567e-03   2.1534740e-03   2.3849049e-04   9.9193581e-05   9.4497996e-05   4.7897061e-04   5.9365733e-05   1.5397260e-04  -3.4233022e-04   2.8788096e-06   8.4796557e-07   2.3992330e-04  -1.0048123e-04   2.8666812e-04   4.0483319e-04  -1.5098148e-04  -1.5687694e-04   3.2897851e-04   2.7454577e-04   1.9735775e-04   4.7652446e-04   3.1144451e-04   2.4559221e-04   1.3207679e-04   2.2303437e-04   3.4246308e-04   5.4877667e-04   2.1841131e-04   3.0070684e-04   2.8959643e-04   6.0278628e-04  -1.0975727e-04  -2.0513668e-04   6.2917050e-04   4.2185721e-04   1.9137582e-04   3.5284259e-04  -7.2063972e-05  -2.4499597e-04  -2.2727514e-04
  -1.0144488e-04  -1.1331613e-05  -7.4209350e-07  -4.8908614e-05   3.3764284e-05   1.1473822e-05   1.3353866e-04   6.8975834e-06  -5.4688785e-05  -5.3366583e-05  -1.0750011e-04  -8.4570743e-05   1.4575559e-04   1.4965599e-04  -8.0896602e-07  -8.0213565e-05  -5.4836219e-05  -4.0496411e-05  -8.5012690e-05  -5.3766699e-05  -1.2462924e-05   2.1142584e-05   1.4377514e-04   9.4066501e-07   8.2371224e-05  -7.9701885e-07  -5.1475880e-05  -1.3997361e-05   4.2940913e-05   4.3111134e-05   1.3151679e-04   3.6697938e-05   2.8970452e-05  -2.7152847e-05   1.9425579e-05   1.9562181e-05   1.1813650e-04   6.1286108e-05  -1.9637717e-05   6.8293721e-05  -1.2023364e-04   1.4767683e-04   6.6884656e-05   5.6415407e-06  -3.7909121e-04  -1.2183852e-04  -5.2759852e-05  -2.0724220e-05  -1.2575290e-04  -7.6868469e-05   9.1820583e-05  -1.4407055e-04  -2.7265977e-04  -7.6350777e-05   1.1861844e-05  -4.8974682e-05  -3.3052071e-05  -3.1154098e-05   2.5272442e-05  -2.4767875e-06   1.0018034e-04   9.0404346e-05  -1.1336970e-05  -1.7597638e-05   6.9814142e-06  -1.9348068e-05   2.9365285e-04  -1.1790848e-04  -4.6109716e-04   4.8154399e-05   3.3217035e-05   3.2919832e-05   3.8561248e-05  -2.3186710e-04  -6.5754006e-04  -3.0395630e-04   4.6215396e-04   2.9097761e-04   2.3811654e-04   2.6697584e-04   1.9285815e-04   4.0552914e-04  -4.4784023e-04  -4.3174553e-04   1.6640358e-04   3.5083568e-04   1.1887635e-04   6.3821995e-04   8.0505596e-04  -3.4707901e-04  -9.4944762e-05  -8.7546204e-05   1.1043124e-04  -3.9078507e-05   4.8639958e-04   3.8753864e-04   1.0411942e-04   1.7698170e-04   7.6304451e-04   4.6092979e-04   5.7087079e-04   6.6866844e-04   4.0428700e-04   2.7342572e-04   8.6904495e-04  -2.0175028e-04   1.0023655e-05   8.7831729e-04   8.9587522e-04   2.8532995e-04   4.0584490e-04  -3.6004410e-04  -4.3476975e-04   1.5266528e-04  -2.0220833e-04  -1.4852070e-04  -9.1550383e-05  -1.6638100e-04  -1.3213770e-04  -2.1010204e-04  -1.4866603e-04  -7.3124281e-05  -4.9794181e-05  -1.8421364e-04  -1.8476076e-04  -2.2773913e-04  -2.1714536e-04  -1.7208407e-04  -7.8847203e-05  -2.1253270e-04  -1.6580743e-04  -1.7423173e-04  -1.9237409e-04  -2.0732493e-04  -1.7264962e-04  -1.8015488e-04  -2.4418635e-04  -1.5681449e-04  -2.1244800e-04  -2.1390382e-04  -1.3514670e-04  -1.6943830e-04  -1.3371001e-04  -6.1152103e-05  -3.8586719e-05  -2.0185116e-04  -1.5294928e-04  -6.2771817e-05  -1.2340792e-04  -3.3962523e-05  -1.2156730e-05  -5.9182445e-05  -1.7774818e-04  -1.1465006e-04   1.9729445e-05  -1.1013195e-04  -5.9223713e-06  -6.1264780e-05  -1.0224207e-04  -1.9096675e-04  -4.3554012e-05  -6.5395421e-05  -1.0131683e-04  -1.7838028e-04   6.0282270e-05  -9.3696607e-05  -8.7200717e-05  -1.0056352e-04  -6.8943750e-05  -1.1094791e-04  -1.4770709e-04  -1.7342889e-04  -8.4071288e-05  -1.7065900e-05   1.1177621e-04  -3.0998344e-05   3.0525253e-05  -1.0137486e-04  -1.3232523e-04  -7.2826181e-05  -4.4801856e-05  -2.3607927e-04  -2.0203330e-04  -7.4080788e-05  -1.5604895e-04  -4.8606588e-05  -2.4093779e-05  -1.2967139e-04  -2.1041112e-04  -1.9376950e-04  -1.0720432e-06   3.7498813e-07  -4.2688549e-05  -1.5025986e-04  -6.2103289e-05  -1.2741641e-04  -7.9413964e-05  -3.4930057e-05  -4.8846598e-05  -8.6245094e-05  -1.7905619e-04  -9.1040032e-05  -1.6640190e-04  -8.8730148e-05  -3.6445152e-05  -1.1312329e-04  -6.3992368e-05  -1.0245012e-04  -9.6701127e-05  -9.9422363e-05  -7.9279196e-05  -6.1961919e-05  -9.9391278e-05  -4.2317791e-05  -1.0766570e-04  -1.0342604e-04  -6.9267693e-05  -5.0759802e-05  -6.9523439e-05  -5.9941939e-05  -1.0615305e-04  -1.2050460e-04  -9.2042300e-05  -3.2613761e-05  -5.9089759e-05  -4.2184045e-05  -1.6316965e-04  -5.2890318e-05  -2.1245544e-04  -1.1885566e-04   3.8486166e-04  -3.1078921e-05  -1.9380452e-05  -3.8352578e-04   2.7439442e-04   3.5960346e-05  -6.9584893e-06  -1.2820721e-04  -4.9132578e-04  -4.6803970e-04  -1.1263185e-04  -1.5010230e-05  -3.6099214e-05  -5.9229462e-05  -2.3055215e-04  -3.3080569e-04  -3.3531432e-04  -3.6301295e-04  -2.3255868e-04  -2.2770479e-04  -3.7929996e-04  -1.4713907e-04  -2.5259606e-04  -4.1813038e-04  -3.8626039e-04  -3.1038114e-04  -1.3460191e-04   1.4823139e-04   3.8446097e-04  -5.3776618e-04  -4.0827879e-04  -1.8480075e-04  -3.0338890e-04   5.3630064e-05   1.9048713e-04   2.3486436e-04  -2.7881194e-04  -1.8631717e-04  -2.9533686e-04  -4.1888560e-04  -1.6072964e-04  -3.6076256e-04  -3.6921267e-04  -5.7307106e-05  -2.5333953e-04  -3.5137016e-04  -4.6094224e-04  -3.8238337e-04  -2.3339347e-04  -4.9892802e-04  -2.0938254e-04  -4.6455340e-04  -4.1823031e-04  -3.4854578e-04  -3.2295856e-04  -3.6660937e-04  -4.3431356e-04  -2.4176454e-04  -5.3806340e-04  -2.6031124e-04  -2.9294414e-04  -4.4763199e-04  -2.9082353e-04  -3.0894983e-04  -3.2534033e-04  -1.9366901e-05  -3.0578478e-04  -4.7167219e-04  -2.9409140e-04  -1.7780751e-04  -2.5149723e-04  -1.8511577e-04  -1.1585477e-04  -2.5691483e-04  -2.3879910e-05   5.4912105e-05   4.7156273e-05  -1.3342147e-04  -8.8392142e-05  -9.8596761e-05  -3.9758003e-04  -5.7251393e-04  -1.0656351e-04  -8.1304917e-05  -9.1597010e-05  -9.7544619e-06  -2.1738169e-04  -4.4748603e-04  -2.6738164e-04  -2.7838110e-04  -1.9631351e-04  -1.1660684e-04  -4.9381301e-05   2.0855535e-06  -1.1182951e-04  -1.2164222e-04  -1.1169237e-04  -1.1002053e-04  -9.1438059e-05  -5.6644834e-05  -1.1115056e-04  -5.3425644e-05  -1.9831331e-04  -5.7205873e-04  -4.9778928e-04  -3.8108882e-05  -5.2811619e-05   1.7620312e-07  -5.8181619e-05  -4.3062929e-04  -6.1220901e-04  -2.4541279e-04   3.1131221e-04   2.2972707e-04   3.4090286e-05   8.9627756e-05  -1.9839616e-05   1.0282167e-04  -5.8858460e-05  -2.2969628e-04  -1.2897205e-04   9.9156030e-05   1.0552998e-04   2.1375146e-04  -3.2468347e-04  -3.1733437e-04  -6.1544936e-05   3.7967745e-05   5.9815766e-05   9.4397475e-05   1.9300735e-04   9.8554712e-05  -2.2987127e-05   4.5774197e-06  -2.4624711e-04   5.8240628e-05   6.7929525e-05  -4.4610412e-05   8.1054429e-05   8.3130622e-05  -4.3941347e-05   6.1055271e-05  -1.3786565e-04   1.5423512e-04   1.2760631e-04   1.3352004e-04   1.4224805e-04  -9.5994808e-05  -1.9318879e-04   3.5570331e-04   4.2369109e-04   4.1820886e-04   7.6238490e-04   1.0926752e-04   7.0522110e-04   3.9363992e-04   2.7585689e-03   2.4434243e-03   7.2019019e-04   3.6914112e-04   3.2711413e-04   5.2201082e-04   1.6256855e-03   2.1346546e-03   7.6906820e-04   5.1747927e-04   2.2859362e-04   5.4333605e-04   6.2954217e-04   5.3923373e-04   6.9409616e-04   9.1110731e-04   7.4111390e-04   8.0800700e-04   1.5581273e-03   7.1814571e-04   3.1295745e-04   8.7675820e-04   6.5230655e-04   3.9064613e-03   3.5819913e-03   7.2976631e-04   4.0840566e-04   9.4425794e-05   8.3145386e-04   1.8560583e-03   6.1263279e-03   2.1466270e-03   2.4755816e-04   1.1645080e-04   1.6478084e-04   5.0285300e-04   6.8447365e-05   1.6301432e-04  -2.7079748e-04   2.2447188e-05   3.8996915e-05   2.4375659e-04  -8.4645949e-05   2.9020397e-04   4.4700060e-04  -1.0421422e-04  -1.3721968e-04   3.5719001e-04   2.8443062e-04   2.1585474e-04   4.8141818e-04   3.2837665e-04   2.6155393e-04   1.5237871e-04   2.3903305e-04   3.6181085e-04   5.7219927e-04   2.2927385e-04   3.0217067e-04   3.0479257e-04   6.2227974e-04  -1.0173098e-04  -1.6727669e-04   6.4101283e-04   4.2622353e-04   1.9910776e-04   3.5704052e-04  -5.7453034e-05  -2.5847240e-04  -1.9569771e-04
  -1.1463697e-04  -2.0712638e-05  -7.9312772e-06  -6.6292858e-05   2.3853256e-05  -7.2715624e-06   1.2756062e-04  -4.6552243e-08  -6.0112004e-05  -6.6924814e-05  -1.3037780e-04  -1.0335681e-04   1.2863687e-04   1.3803591e-04  -5.5592639e-06  -9.7887188e-05  -6.9984683e-05  -5.6292021e-05  -9.9858424e-05  -7.1170226e-05  -2.8734983e-05   9.5173227e-06   1.2741199e-04  -9.2139649e-06   6.7580481e-05  -1.8948332e-05  -6.6474549e-05  -2.7385465e-05   2.7447290e-05   3.4476578e-05   1.3016878e-04   2.0031290e-05   1.5483304e-05  -3.2041508e-05   9.7162635e-06   1.4712019e-05   1.1073055e-04   5.2251823e-05  -3.1933246e-05   6.2114496e-05  -1.2439460e-04   1.4073628e-04   7.3431218e-05  -4.0617258e-06  -3.9291343e-04  -1.0726364e-04  -4.8533814e-05  -3.6227984e-05  -1.2463817e-04  -9.3143788e-05   1.0047679e-04  -1.5007090e-04  -2.7642871e-04  -7.8419626e-05   9.9498295e-06  -4.5459290e-05  -3.7964578e-05  -3.5519066e-05   3.2061845e-05   1.3636286e-06   1.0910256e-04   9.7173867e-05  -8.4622468e-06  -1.8022396e-05   2.7301667e-06  -2.5678576e-05   3.0089163e-04  -1.0184587e-04  -4.4889175e-04   4.6243027e-05   3.1674243e-05   3.0172268e-05   3.8407791e-05  -2.1894160e-04  -6.5226066e-04  -3.2097172e-04   5.0774904e-04   3.0289630e-04   2.5315833e-04   2.4588097e-04   1.8585228e-04   4.3040069e-04  -4.9966734e-04  -4.5667634e-04   1.6700723e-04   3.3775025e-04   1.3608831e-04   6.7022468e-04   7.8214725e-04  -3.8785906e-04  -1.0184350e-04  -6.7751379e-05   1.2832582e-04   1.0577781e-06   5.2558943e-04   4.0881986e-04   9.8405120e-05   2.0114238e-04   7.8374621e-04   4.9838107e-04   6.0996754e-04   7.1237465e-04   4.3392565e-04   2.9874745e-04   8.7642519e-04  -2.3620622e-04  -1.6722299e-05   9.0157172e-04   9.2561788e-04   3.1040136e-04   4.4590079e-04  -3.5895451e-04  -4.2128842e-04   1.7396131e-04  -1.9494215e-04  -1.4709809e-04  -9.0356352e-05  -1.5769955e-04  -1.2947919e-04  -2.0824574e-04  -1.6751965e-04  -8.3637657e-05  -4.8928080e-05  -1.7759382e-04  -1.7448141e-04  -2.2147263e-04  -2.2219225e-04  -1.8525083e-04  -8.3678620e-05  -2.0473654e-04  -1.6084030e-04  -1.6914548e-04  -1.8707367e-04  -2.0186446e-04  -1.6906020e-04  -1.7762383e-04  -2.5429472e-04  -1.5653241e-04  -2.1002368e-04  -2.1045717e-04  -1.2691766e-04  -1.6409788e-04  -1.2918781e-04  -6.5534088e-05  -5.0696313e-05  -1.9869261e-04  -1.4994992e-04  -5.7983818e-05  -1.1911547e-04  -3.5509114e-05  -2.3635555e-05  -5.3144981e-05  -1.8051337e-04  -1.1210084e-04   1.3874196e-05  -1.1826918e-04  -1.2829526e-05  -6.4148320e-05  -1.2023427e-04  -1.9380274e-04  -4.3603128e-05  -7.2985714e-05  -9.8564742e-05  -1.7613129e-04   3.6479574e-05  -1.1532971e-04  -9.0700806e-05  -1.0488033e-04  -7.1857091e-05  -1.1226411e-04  -1.4382925e-04  -1.6626446e-04  -8.1569003e-05  -1.9775158e-05   1.1065703e-04  -3.7524957e-05   1.9690258e-05  -1.0915229e-04  -1.3694835e-04  -8.3698017e-05  -5.6644203e-05  -2.4556883e-04  -2.1662303e-04  -8.0541464e-05  -1.6366115e-04  -5.3905453e-05  -2.9838126e-05  -1.3777883e-04  -2.2282777e-04  -2.1846239e-04   1.0957039e-05   3.4204445e-06  -4.5492912e-05  -1.4163527e-04  -6.0238679e-05  -1.2265581e-04  -8.7130286e-05  -3.6165688e-05  -4.5818379e-05  -7.7091645e-05  -1.6779983e-04  -8.1026225e-05  -1.6329617e-04  -9.4737680e-05  -3.6028919e-05  -1.0207981e-04  -5.6086547e-05  -9.5281068e-05  -8.9430845e-05  -9.3854149e-05  -7.2578483e-05  -5.6665366e-05  -9.9689401e-05  -3.8065633e-05  -1.0310702e-04  -9.6490835e-05  -6.1500444e-05  -4.4056935e-05  -6.7146995e-05  -6.4857948e-05  -1.1771747e-04  -1.1928628e-04  -8.8052612e-05  -3.1314890e-05  -5.7819768e-05  -4.3934327e-05  -1.7456168e-04  -5.6200363e-05  -1.9600746e-04  -1.0545182e-04   3.8066091e-04  -3.6155224e-05  -1.6515605e-05  -3.9667383e-04   3.1712078e-04   8.3214220e-05  -7.4267772e-06  -1.3900894e-04  -5.0213798e-04  -4.6754898e-04  -1.3698114e-04  -1.8038135e-05  -2.1968752e-05  -5.0532478e-05  -2.2511596e-04  -3.2907111e-04  -3.3961286e-04  -3.6475244e-04  -2.3962445e-04  -2.2908003e-04  -4.0278478e-04  -1.5233443e-04  -2.7719707e-04  -4.3202865e-04  -3.8706883e-04  -3.1281252e-04  -1.4920204e-04   2.2401890e-04   4.4873138e-04  -5.3872060e-04  -4.1611804e-04  -1.8299142e-04  -3.0709999e-04   8.1501194e-05   2.3149403e-04   2.5377459e-04  -2.6681094e-04  -1.7612527e-04  -2.9113613e-04  -4.1559151e-04  -1.6153066e-04  -3.5359553e-04  -3.6120887e-04  -3.9090453e-05  -2.3589509e-04  -3.4696622e-04  -4.5462477e-04  -3.6933300e-04  -2.3015368e-04  -4.9579242e-04  -2.0441246e-04  -4.5236751e-04  -4.1531147e-04  -3.4856938e-04  -3.1105921e-04  -3.5793165e-04  -4.2774308e-04  -2.3889214e-04  -5.4035213e-04  -2.6432122e-04  -3.0209203e-04  -4.4079577e-04  -2.8048682e-04  -3.0716740e-04  -3.2378356e-04  -9.8013525e-06  -3.0413920e-04  -4.7354507e-04  -2.8918674e-04  -1.7462802e-04  -2.4933986e-04  -1.8360611e-04  -1.0328998e-04  -2.4880486e-04   8.3649696e-06   6.4594564e-05   4.9546019e-05  -1.2448412e-04  -9.7339027e-05  -9.8638589e-05  -4.5010136e-04  -5.9976712e-04  -1.0827962e-04  -8.4540876e-05  -8.6491160e-05   2.4079735e-06  -2.6565935e-04  -4.9709119e-04  -2.9643387e-04  -2.8630353e-04  -1.9580188e-04  -1.2509225e-04  -5.3219099e-05   3.2149227e-06  -1.2617385e-04  -1.3210259e-04  -1.6302112e-04  -1.0775026e-04  -1.0462924e-04  -7.7294561e-05  -1.1504646e-04  -4.8426605e-05  -1.8716897e-04  -6.0381333e-04  -5.6146296e-04  -3.6717517e-05  -5.2345347e-05   2.5091734e-06  -5.5163594e-05  -4.5851474e-04  -7.0562604e-04  -2.6870507e-04   3.0682795e-04   2.2074594e-04   3.9464785e-05   9.0143335e-05  -2.4248803e-05   9.9010664e-05  -6.7920898e-05  -2.5372774e-04  -1.2477953e-04   9.2204053e-05   1.0668211e-04   2.0993352e-04  -3.3853905e-04  -3.2917309e-04  -6.1212638e-05   2.9844156e-05   5.5588329e-05   8.1821154e-05   1.7896564e-04   8.8770531e-05  -3.7598226e-05   4.3963042e-07  -2.3847186e-04   5.0516558e-05   7.0303342e-05  -5.3761596e-05   6.6010149e-05   7.6588028e-05  -5.3827011e-05   3.9031214e-05  -1.4330861e-04   1.4492116e-04   1.1636127e-04   1.2894152e-04   1.3165446e-04  -1.0741901e-04  -2.0430350e-04   3.5107008e-04   4.3500107e-04   4.3345911e-04   8.0147256e-04   1.7324395e-04   7.1526898e-04   3.9712464e-04   2.8272702e-03   2.3917690e-03   7.5343497e-04   3.9633384e-04   3.4294756e-04   5.1104818e-04   1.6681200e-03   2.1648380e-03   7.4585901e-04   5.4002280e-04   2.4471940e-04   5.2708887e-04   6.1808388e-04   5.3514669e-04   7.0208581e-04   9.0778987e-04   7.9668403e-04   8.2095455e-04   1.5766956e-03   7.3069901e-04   3.2749703e-04   8.9909085e-04   6.9717021e-04   3.8293236e-03   3.5943960e-03   7.4047395e-04   4.1773300e-04   1.2092294e-04   8.3830882e-04   1.8580459e-03   6.0459156e-03   2.1225807e-03   2.5732733e-04   1.3571689e-04   2.2850008e-04   5.2505825e-04   7.4558449e-05   1.7030108e-04  -1.8925638e-04   4.2026772e-05   7.4231304e-05   2.4622300e-04  -6.7916759e-05   2.9442085e-04   4.7849355e-04  -5.5019701e-05  -1.1668091e-04   3.8308764e-04   2.9298801e-04   2.3153170e-04   4.8343899e-04   3.4357869e-04   2.7271131e-04   1.7081565e-04   2.5088431e-04   3.7858595e-04   5.8843807e-04   2.3364574e-04   3.0028061e-04   3.1663293e-04   6.3542417e-04  -8.6086043e-05  -1.1751260e-04   6.4828758e-04   4.2566515e-04   2.0477486e-04   3.5729463e-04  -4.3644809e-05  -2.6682842e-04  -1.6084497e-04
  -1.2620778e-04  -2.9499766e-05  -1.5489855e-05  -8.3232650e-05   1.3721419e-05  -2.5656932e-05   1.2206407e-04  -4.8499271e-06  -6.4798274e-05  -8.0172559e-05  -1.5126632e-04  -1.2052573e-04   1.1007726e-04   1.2568807e-04  -8.7855717e-06  -1.1451060e-04  -8.5254360e-05  -7.1187732e-05  -1.1342691e-04  -8.7635432e-05  -4.4195564e-05  -2.1576556e-06   1.0968308e-04  -1.9399349e-05   5.1973022e-05  -3.6622378e-05  -8.0295684e-05  -4.0378037e-05   1.1214114e-05   2.6833507e-05   1.2932031e-04   2.8317440e-06   1.5484021e-06  -3.6898008e-05  -2.6785609e-07   1.0038572e-05   1.0483766e-04   4.3201263e-05  -4.4144029e-05   5.6117296e-05  -1.2505062e-04   1.3154734e-04   8.0524567e-05  -1.4308816e-05  -3.9292648e-04  -8.2927968e-05  -4.2605675e-05  -5.3396660e-05  -1.2522988e-04  -1.1091298e-04   1.1002826e-04  -1.4876707e-04  -2.7413443e-04  -8.0734976e-05   5.5595703e-06  -4.2750978e-05  -4.4020917e-05  -4.0385965e-05   3.9206930e-05   5.0306088e-06   1.1692729e-04   1.0428332e-04  -3.9919198e-06  -1.8233795e-05  -2.4207574e-06  -3.1906561e-05   3.0512496e-04  -7.7115278e-05  -4.2046473e-04   4.4610938e-05   2.9431179e-05   2.6861833e-05   3.8776784e-05  -1.9896569e-04  -6.2748970e-04  -3.3149252e-04   5.4407638e-04   3.1212268e-04   2.6396535e-04   2.2198047e-04   1.8007906e-04   4.4974569e-04  -5.2570905e-04  -4.6149716e-04   1.6752083e-04   3.1777567e-04   1.5877519e-04   6.8567689e-04   7.4809484e-04  -4.1394378e-04  -9.6848021e-05  -4.6128281e-05   1.3909770e-04   4.1284831e-05   5.5094707e-04   4.2290543e-04   9.2611311e-05   2.2721217e-04   7.9514298e-04   5.3105009e-04   6.4236595e-04   7.4373146e-04   4.5798852e-04   3.2089332e-04   8.6186975e-04  -2.6780209e-04  -3.2425329e-05   9.0978523e-04   9.3830302e-04   3.3196392e-04   4.8155927e-04  -3.4862027e-04  -3.7471414e-04   2.0611708e-04  -1.8533140e-04  -1.4325833e-04  -8.8142645e-05  -1.4730207e-04  -1.2421739e-04  -2.0330381e-04  -1.8261731e-04  -9.2830948e-05  -4.7709889e-05  -1.6900711e-04  -1.6185332e-04  -2.1250514e-04  -2.2347395e-04  -1.9518010e-04  -8.7055995e-05  -1.9482475e-04  -1.5408126e-04  -1.6193632e-04  -1.7992560e-04  -1.9376823e-04  -1.6348312e-04  -1.7216427e-04  -2.6060795e-04  -1.5403625e-04  -2.0414478e-04  -2.0475921e-04  -1.1766992e-04  -1.5702085e-04  -1.2342350e-04  -6.8246845e-05  -6.0168799e-05  -1.9298274e-04  -1.4576261e-04  -5.3303432e-05  -1.1366065e-04  -3.5929835e-05  -3.1265817e-05  -4.5013125e-05  -1.8063972e-04  -1.0694193e-04   8.5829566e-06  -1.2527218e-04  -1.8828645e-05  -6.4206512e-05  -1.3857716e-04  -1.9590078e-04  -4.2661188e-05  -7.7401985e-05  -9.4581898e-05  -1.7120121e-04   1.2877767e-05  -1.3606092e-04  -9.2946444e-05  -1.0666237e-04  -7.2683799e-05  -1.1219389e-04  -1.3753713e-04  -1.5675751e-04  -7.7373263e-05  -2.2282773e-05   1.1156880e-04  -4.2115961e-05   1.1073138e-05  -1.1400264e-04  -1.3921862e-04  -9.2470495e-05  -6.6182702e-05  -2.5288004e-04  -2.2846970e-04  -8.3177460e-05  -1.6687102e-04  -5.7765631e-05  -3.3623367e-05  -1.4386323e-04  -2.3353865e-04  -2.4151951e-04   2.4031540e-05   8.1780389e-06  -4.7526282e-05  -1.3183305e-04  -5.6432747e-05  -1.1545971e-04  -9.2093384e-05  -3.5987162e-05  -4.2730839e-05  -6.6932987e-05  -1.5442034e-04  -6.9215347e-05  -1.5807456e-04  -9.8445214e-05  -3.4504710e-05  -9.0318297e-05  -4.7083226e-05  -8.6315903e-05  -8.0622960e-05  -8.6204045e-05  -6.4419599e-05  -5.0003085e-05  -9.7623312e-05  -3.2869805e-05  -9.6552666e-05  -8.7681990e-05  -5.2483158e-05  -3.6202820e-05  -6.2974326e-05  -6.8678721e-05  -1.2716809e-04  -1.1605198e-04  -8.2107480e-05  -2.9611569e-05  -5.5708057e-05  -4.4315324e-05  -1.8432855e-04  -5.8840171e-05  -1.7614084e-04  -9.0296066e-05   3.7612165e-04  -4.3245819e-05  -1.4409165e-05  -4.0584239e-04   3.5490539e-04   1.3238682e-04  -8.4595721e-06  -1.4998727e-04  -5.0658039e-04  -4.6201785e-04  -1.6547156e-04  -2.4918928e-05  -7.2408020e-06  -4.1446949e-05  -2.1469977e-04  -3.2231694e-04  -3.4012291e-04  -3.6203634e-04  -2.4445867e-04  -2.2802874e-04  -4.2157381e-04  -1.5756619e-04  -2.9797351e-04  -4.4028345e-04  -3.8407740e-04  -3.1156326e-04  -1.6138785e-04   3.0593975e-04   5.1138645e-04  -5.3144889e-04  -4.1739719e-04  -1.7788545e-04  -3.0639892e-04   1.1235250e-04   2.7433283e-04   2.7015863e-04  -2.5204282e-04  -1.6468693e-04  -2.8430554e-04  -4.0493643e-04  -1.5950320e-04  -3.4348419e-04  -3.4900279e-04  -2.0243498e-05  -2.1657872e-04  -3.3872917e-04  -4.4533852e-04  -3.5291827e-04  -2.2422201e-04  -4.8770423e-04  -1.9746639e-04  -4.3738623e-04  -4.0857619e-04  -3.4588335e-04  -2.9676133e-04  -3.4664075e-04  -4.1633337e-04  -2.3548581e-04  -5.3789701e-04  -2.6674167e-04  -3.0810821e-04  -4.2925136e-04  -2.6706609e-04  -3.0189541e-04  -3.1916190e-04  -1.0175336e-07  -3.0036928e-04  -4.6939769e-04  -2.8004307e-04  -1.6961980e-04  -2.4481133e-04  -1.8069342e-04  -9.0727349e-05  -2.3829905e-04   4.4793650e-05   7.5089325e-05   5.2503939e-05  -1.0942604e-04  -1.0471057e-04  -9.6565168e-05  -5.1301812e-04  -6.3411505e-04  -1.1157885e-04  -8.1412089e-05  -8.0151377e-05   1.6569547e-05  -3.1113697e-04  -5.5131457e-04  -3.3185076e-04  -2.8800537e-04  -1.8885463e-04  -1.2942775e-04  -5.4143344e-05   6.6025481e-06  -1.3762808e-04  -1.3853196e-04  -2.1052799e-04  -1.0174235e-04  -1.1495710e-04  -9.3743456e-05  -1.1549971e-04  -4.0104771e-05  -1.6821214e-04  -6.3993443e-04  -6.3696735e-04  -3.2362089e-05  -4.8246001e-05   6.3008478e-06  -5.0856491e-05  -4.8843680e-04  -8.1326945e-04  -2.9575771e-04   3.0255952e-04   2.1184652e-04   4.2901785e-05   9.2641352e-05  -2.7058130e-05   9.6729764e-05  -7.3881114e-05  -2.7583459e-04  -1.1965381e-04   8.5657293e-05   1.0880211e-04   2.0707304e-04  -3.4994697e-04  -3.3676708e-04  -5.8788855e-05   2.0931609e-05   5.0819267e-05   6.7938089e-05   1.6335528e-04   7.9396517e-05  -5.3062485e-05  -2.5802901e-06  -2.2806594e-04   4.3804164e-05   7.1056512e-05  -6.1744064e-05   5.0450306e-05   6.9285792e-05  -6.4575347e-05   1.5956868e-05  -1.4760427e-04   1.3447653e-04   1.0429977e-04   1.2276973e-04   1.1925217e-04  -1.1947388e-04  -2.1463537e-04   3.4369322e-04   4.3335121e-04   4.3642764e-04   8.2940641e-04   2.2277964e-04   7.1893585e-04   3.9145723e-04   2.8676018e-03   2.3218329e-03   7.7321077e-04   4.0977866e-04   3.5056771e-04   4.8738740e-04   1.6991530e-03   2.1677184e-03   7.1626599e-04   5.4976308e-04   2.5411240e-04   4.9616152e-04   5.8688838e-04   5.1380459e-04   6.9540985e-04   8.9687399e-04   8.3823480e-04   8.2258428e-04   1.5883352e-03   7.2454106e-04   3.2604827e-04   9.0669428e-04   7.2346389e-04   3.7258501e-03   3.5803070e-03   7.3114085e-04   4.0566510e-04   1.3280251e-04   8.3490332e-04   1.8429149e-03   5.9426452e-03   2.0858908e-03   2.6811460e-04   1.5678765e-04   2.8355073e-04   5.4459511e-04   7.7505547e-05   1.7547162e-04  -1.0085132e-04   6.1236886e-05   1.0500470e-04   2.4729596e-04  -5.1583381e-05   2.9943589e-04   4.9775149e-04  -6.1173453e-06  -9.6553562e-05   4.0582327e-04   2.9966952e-04   2.4379654e-04   4.8304756e-04   3.5615564e-04   2.7809852e-04   1.8646398e-04   2.5739900e-04   3.9215068e-04   5.9717961e-04   2.3049140e-04   2.9484360e-04   3.2447846e-04   6.4201188e-04  -6.2530425e-05  -5.7159793e-05   6.5099935e-04   4.2015387e-04   2.0816998e-04   3.5408747e-04  -3.1361618e-05  -2.6949699e-04  -1.2363287e-04
