  -7.1213406e-06  -2.6491451e-06  -5.6011966e-06   1.2496900e-05   1.9089189e-05   1.4151369e-05   0.0000000e+00   4.3001669e-05  -9.5950345e-06  -2.3211282e-05  -8.7240359e-07  -4.8455172e-06   7.6970905e-06   2.8483045e-05   0.0000000e+00  -2.9638662e-05  -8.4571310e-06   6.7872099e-06   1.3711589e-05   6.4236256e-06   2.4151413e-05   1.0265581e-05   1.9301689e-05   9.8570181e-06   1.0425914e-05   2.7660915e-05   6.0429877e-06   3.0712312e-06  -2.2526518e-05   3.7589764e-05  -1.6194025e-05   3.3091652e-05   1.5231558e-05  -2.7893726e-06  -2.0614092e-07  -7.5102297e-06  -3.3175089e-05  -2.1460326e-05  -1.1195962e-04  -8.3345536e-05  -1.5642321e-04   5.0636325e-05  -1.4865358e-04  -1.5471910e-04   0.0000000e+00   1.6549391e-04   1.0045891e-04  -1.4877023e-04  -1.8740271e-04  -2.6305867e-04  -7.1660355e-05   5.3911396e-05   0.0000000e+00   1.1798825e-04  -3.5086732e-05  -2.0003711e-04  -2.0750305e-04  -1.6224462e-04  -7.8813222e-05  -6.7768005e-05  -6.0075526e-05  -7.6023788e-05  -1.0622731e-04  -9.8844167e-05  -9.8941337e-05  -1.1126083e-04   4.7704236e-05   1.3304911e-04   1.4479018e-04  -1.1803846e-04  -9.2191365e-05   1.5099902e-05   3.1279686e-05   3.5464936e-04   2.9455254e-04   7.0796776e-05  -1.8048298e-04  -1.4213838e-04   4.3734271e-06   2.3684038e-05   6.9437558e-05   1.6602663e-04   0.0000000e+00  -1.4988813e-04   9.4384692e-06   2.8326928e-06  -1.4226296e-04  -1.0834733e-04   2.3374830e-04   1.2717718e-04   0.0000000e+00   1.3429075e-05   3.8591970e-05  -1.3012053e-04  -4.2019664e-04  -1.4895989e-04  -1.3628228e-04  -2.9858709e-05   2.4947238e-05  -2.3138242e-04  -5.8154476e-05  -8.0174107e-05  -2.8987040e-04  -1.0799707e-04  -2.4895290e-04   1.7258717e-05  -2.3913091e-04  -3.0516456e-04  -3.2841418e-04  -4.6289863e-04  -2.1306677e-04   5.7091529e-07  -2.6861415e-04  -3.1613204e-04   2.3608094e-04   9.0174021e-05   6.7480431e-05   5.4950733e-05   8.6451095e-05   7.5431409e-05   0.0000000e+00  -1.0326833e-04  -2.1215202e-05   4.7163086e-05   2.6759426e-05   6.5165876e-05  -3.5007884e-05  -3.2624060e-05   0.0000000e+00  -1.0620586e-04   2.1256644e-05   7.0291385e-05   1.1836629e-04   2.8029919e-05  -8.2143984e-06   1.7069256e-04   1.3391433e-05   1.6143817e-04   1.3121434e-04  -8.6477540e-07   2.5317569e-05   3.7504992e-05  -1.8722617e-05  -2.7773619e-06  -8.6492089e-05   9.2126659e-06   3.7268376e-06  -3.4410905e-05  -4.4711785e-05  -1.0508378e-05  -6.0042354e-05  -4.9696697e-05   1.4370371e-04   7.9837307e-05   7.0862679e-07   5.7017186e-05   3.0589483e-05   2.0821996e-05   0.0000000e+00  -2.9672794e-05  -4.6641921e-05  -7.2126935e-06  -2.5814785e-05   2.6003870e-05  -3.4805559e-06  -4.2845278e-05   0.0000000e+00  -6.2858411e-05  -1.7077878e-05  -2.1757076e-06   2.5246360e-05   1.2322318e-05  -1.0024244e-05   6.6832940e-05  -1.1116576e-06   9.8700941e-05   2.5440179e-05   2.0465896e-07   3.0382511e-05   1.7099824e-05  -2.7308875e-05  -2.7911561e-05  -6.4835599e-05  -4.8414841e-06   1.7415795e-05  -1.5590509e-05  -4.4837981e-05  -9.5593566e-05  -4.4543503e-05  -1.6776165e-06  -4.6170514e-05  -4.3664270e-05   1.6620539e-05  -8.6482908e-06   1.8917515e-05   2.6778094e-05   0.0000000e+00   1.3401005e-04   5.7161453e-05  -6.7289424e-06  -3.8855122e-05  -5.1205326e-06  -1.8799014e-07   1.0235364e-05   0.0000000e+00   3.9234301e-05  -1.1897823e-05  -5.0158414e-05  -3.4824185e-05  -2.4292560e-05  -4.4433862e-05  -3.4262108e-05  -2.6319012e-05  -1.0847662e-05  -1.2662102e-05  -5.2142950e-05  -3.5104766e-05  -3.3926237e-05   5.0456504e-06   3.0853497e-05   3.4373922e-05  -5.1277724e-05  -1.6206119e-05  -4.3530116e-05  -1.5052064e-05   8.1881110e-05   4.8832790e-08  -2.1900105e-05  -4.0668031e-05   4.1030274e-05  -1.0181233e-04   6.8226977e-05  -7.7026795e-05  -8.2052806e-05   0.0000000e+00   6.9817753e-05  -1.2635148e-04  -9.5474748e-05  -9.7415898e-05  -1.7554689e-04  -1.2656882e-04  -4.7001524e-05   0.0000000e+00  -2.7110272e-04  -5.0150375e-05  -7.3981419e-06  -3.4758226e-05  -8.9850293e-05  -4.3914064e-05   5.9813108e-05  -2.0552727e-05   6.2546195e-05   1.3024830e-04  -3.2502455e-05  -6.3815012e-05   5.3701128e-05  -1.8467029e-04   1.0931895e-04  -4.9990556e-04   3.2077667e-05   6.7193820e-05  -1.0367195e-05  -5.2539749e-05  -5.7416837e-04  -5.1859597e-04  -3.2054716e-04  -2.6965310e-05  -5.6958728e-05   7.3477006e-05   5.2434860e-05  -4.7877464e-05  -1.2800620e-05   0.0000000e+00   1.8591109e-04   1.8583046e-04   2.4426677e-05  -9.7305651e-05  -6.3601033e-05   1.4737395e-05   4.3697610e-05   0.0000000e+00  -5.2032767e-05  -4.2828542e-05  -3.0095671e-05  -3.8683605e-05  -6.0726371e-05  -9.5735537e-05  -2.1189479e-05  -4.5326131e-05  -5.0746708e-05   2.0585872e-06  -9.2310665e-05  -1.1054112e-04  -3.6240613e-05  -8.4670121e-06   2.3729256e-05  -4.3246869e-05  -1.1256882e-04  -9.9680213e-05  -8.7181120e-05  -4.2817641e-05   4.3174382e-05  -6.5879571e-05  -3.0360095e-05  -4.2250117e-05  -8.7178686e-05   1.0480368e-05  -2.3034299e-04   5.6692248e-05   3.2782425e-05   0.0000000e+00   2.2020436e-05   7.1647039e-05   2.8007509e-05  -9.8906099e-05  -2.5782104e-06  -4.0399937e-06  -7.2044308e-05   0.0000000e+00  -1.6572561e-05  -7.2283507e-05  -3.0717700e-05  -1.8718440e-05   1.1307569e-05  -3.1157049e-05   1.4811062e-05  -2.2125463e-06  -1.0759157e-05  -1.0975268e-05  -6.9090948e-06  -4.8352689e-05  -4.2407565e-05  -8.1456021e-05   6.6500941e-05  -1.5670672e-04  -5.3200621e-05   2.6100921e-05  -1.3869860e-04  -4.5104607e-05   8.9062118e-05  -1.6291781e-04  -1.1673943e-04   5.5268678e-06   6.9388249e-06   1.5275727e-04  -2.3427431e-06  -3.7136303e-05  -9.5272196e-06   0.0000000e+00   3.4085344e-04   1.1493013e-04   2.5183075e-05  -2.3286542e-05   2.4639558e-05   5.1174534e-05   5.4524752e-05   0.0000000e+00   1.8562665e-04   6.0731288e-05   1.2031823e-04   6.6078719e-05   2.0821843e-05  -6.7564504e-05   1.4625256e-04  -9.1485946e-05   6.7524094e-05   4.1013625e-05  -3.0312173e-05  -1.1377885e-05  -1.8901541e-05   5.0392856e-05   1.7539242e-04   1.0271484e-04  -1.5044932e-04   2.5147525e-05  -6.2467559e-05   5.2249277e-05   1.6828131e-04   5.1202854e-05   5.9339510e-05  -5.8379546e-06  -2.9408632e-05  -7.6213795e-05   7.9424333e-05  -6.5443511e-05  -2.3442184e-05   0.0000000e+00  -1.9867809e-04  -1.2962906e-04  -7.4834583e-05  -1.2772696e-04   5.2401444e-05  -1.9657797e-04  -9.7240206e-05   0.0000000e+00  -1.6015319e-04  -9.0891193e-05  -8.9445979e-05   1.4084393e-04  -1.4623965e-06  -1.2330932e-04   1.7423061e-05  -4.6006012e-05  -2.0387892e-05   7.6074463e-06  -1.1196029e-04  -1.9597096e-05  -3.4179185e-05  -6.9374022e-05  -1.1957370e-04  -1.1986049e-04  -1.5825132e-04  -5.3206293e-05  -2.8172824e-05  -1.1651168e-04  -1.0591936e-04  -5.5172763e-05  -1.4795256e-04
  -1.0968115e-05  -4.9615503e-06  -4.9245376e-06   1.2396729e-05   2.0245567e-05   1.4871098e-05   0.0000000e+00   6.0722290e-05  -8.5375062e-06  -2.8865540e-05  -8.2768365e-06  -6.8908575e-06   6.3374424e-06   2.9796680e-05   0.0000000e+00  -3.8564718e-05  -1.5682433e-05   2.9308264e-06   1.1230966e-05   5.0533843e-06   2.2541240e-05   1.0409429e-05   1.9356025e-05   9.3542140e-06   1.1152587e-05   2.6286200e-05   4.6337443e-06   1.3925445e-06  -2.6756120e-05   4.0254273e-05  -2.4200743e-05   3.3545824e-05   1.5736080e-05  -3.3333276e-06  -1.2376395e-06  -1.5894258e-05  -4.1747523e-05  -2.6318011e-05  -1.1626829e-04  -8.1239901e-05  -1.8117231e-04   8.7920695e-05  -1.7392360e-04  -1.7445270e-04   0.0000000e+00   1.6189593e-04   5.6727436e-05  -1.6900635e-04  -2.0372755e-04  -2.8974624e-04  -8.8184195e-05   4.6797254e-05   0.0000000e+00   1.3591596e-04  -4.4349215e-05  -2.1991606e-04  -2.2923027e-04  -1.7956445e-04  -8.6065069e-05  -8.7097083e-05  -6.9432306e-05  -7.5720962e-05  -1.1111443e-04  -1.0845395e-04  -9.4071136e-05  -1.0696147e-04   3.8869870e-05   1.7039368e-04   1.4045705e-04  -1.2523344e-04  -9.0267895e-05   4.2334438e-05   4.9042114e-05   3.4532552e-04   3.2206226e-04   8.0541414e-05  -2.1103873e-04  -1.6921177e-04  -1.7195825e-05   4.3075803e-05   4.0647380e-05   1.4800697e-04   0.0000000e+00  -1.6388958e-04  -3.4380840e-05  -3.2449561e-05  -1.9364659e-04  -1.5983440e-04   2.1402265e-04   1.2415242e-04   0.0000000e+00  -2.4919267e-05   3.1252566e-06  -1.8052196e-04  -4.8789221e-04  -2.0563729e-04  -2.0624480e-04  -7.0398817e-05  -2.0048550e-05  -2.7352831e-04  -8.5215603e-05  -1.5769251e-04  -3.5701171e-04  -1.5266031e-04  -2.8758327e-04   4.1501567e-05  -2.9021956e-04  -3.9129049e-04  -4.0554681e-04  -5.1076232e-04  -2.5261028e-04  -1.1005104e-05  -2.8868340e-04  -3.6331210e-04   2.4304644e-04   9.6207003e-05   7.7286542e-05   6.6151244e-05   9.2420648e-05   7.8250544e-05   0.0000000e+00  -1.1790760e-04  -2.7513693e-05   5.1041161e-05   3.2456197e-05   6.7599560e-05  -4.3175383e-05  -3.4451675e-05   0.0000000e+00  -1.1764873e-04   2.5792392e-05   7.5703264e-05   1.1752603e-04   3.1474837e-05  -3.5302008e-06   1.7273016e-04   1.3814060e-05   1.7189377e-04   1.3883583e-04   4.5700830e-07   2.7140035e-05   4.2828655e-05  -2.3687524e-05  -2.7504412e-06  -9.7612532e-05   1.2705809e-05   4.4411818e-06  -3.1398973e-05  -4.7765372e-05  -2.5119002e-05  -6.6648741e-05  -5.1325348e-05   1.4512685e-04   9.0780649e-05  -6.6513959e-07   6.0181901e-05   3.5486499e-05   2.3108105e-05   0.0000000e+00  -4.0785202e-05  -4.9852735e-05  -1.0731259e-05  -2.1619621e-05   3.0622225e-05  -9.2856639e-06  -4.8785705e-05   0.0000000e+00  -6.2600852e-05  -1.4706524e-05  -4.7460175e-06   2.0408914e-05   1.5296991e-05  -7.1923417e-06   5.5084934e-05  -1.2199606e-06   1.0062601e-04   2.0486275e-05  -8.4730157e-08   3.3390022e-05   1.6326699e-05  -2.8090751e-05  -3.7151086e-05  -7.3097410e-05  -3.9437180e-06   2.0526622e-05  -1.3826193e-05  -5.2481842e-05  -1.0342651e-04  -4.8619634e-05  -7.6417940e-08  -7.6035018e-05  -5.3695184e-05   1.8640590e-05  -1.4284707e-05   1.6147711e-05   2.1790332e-05   0.0000000e+00   1.4762728e-04   6.1708346e-05  -8.2070456e-06  -4.0742016e-05  -6.4610287e-06   4.7198238e-06   1.4442155e-05   0.0000000e+00   4.9934965e-05  -1.1643215e-05  -6.0461853e-05  -5.1879804e-05  -2.9955446e-05  -4.8818500e-05  -5.5947876e-05  -3.3928409e-05  -2.4054890e-05  -2.1056434e-05  -6.1715101e-05  -4.2267555e-05  -3.9876519e-05   1.3516677e-06   3.5328911e-05   3.5645514e-05  -5.9528756e-05  -1.9958529e-05  -4.5184393e-05  -1.6189831e-05   7.4891323e-05  -4.3663616e-06  -2.4367046e-05  -3.6997847e-05   4.0250114e-05  -1.1155936e-04   7.1159550e-05  -7.8393507e-05  -8.2483735e-05   0.0000000e+00   5.3515952e-05  -1.3876816e-04  -1.0155049e-04  -1.1054350e-04  -1.9171952e-04  -1.3707725e-04  -5.6689565e-05   0.0000000e+00  -2.9264633e-04  -5.6290810e-05  -2.5076453e-06  -2.9786390e-05  -1.0002013e-04  -4.3719707e-05   7.3474158e-05  -1.4392470e-05   5.6043424e-05   1.3603760e-04  -3.0051899e-05  -7.0900940e-05   5.0333041e-05  -1.6988265e-04   4.6075453e-05  -5.2220803e-04   3.6493020e-05   7.2407065e-05  -1.3989844e-05  -6.8395272e-05  -5.6181936e-04  -5.2049735e-04  -3.1966250e-04  -2.2577304e-05  -5.3410755e-05   7.6046613e-05   5.9257950e-05  -5.5525187e-05  -1.5413587e-05   0.0000000e+00   2.0666222e-04   1.8426226e-04   2.4000417e-05  -1.0762786e-04  -6.7382910e-05   5.3828259e-06   4.4397102e-05   0.0000000e+00  -5.4246314e-05  -5.8808148e-05  -4.2448643e-05  -3.8634777e-05  -6.5030154e-05  -1.1338120e-04  -2.8840094e-05  -5.4131691e-05  -6.2190549e-05  -4.8157239e-06  -1.0891477e-04  -1.2446181e-04  -4.1354418e-05  -6.5355125e-06   2.6859764e-05  -4.4005791e-05  -1.2785128e-04  -1.0888865e-04  -9.0960617e-05  -4.3002891e-05   3.7268462e-05  -6.8531266e-05  -3.3454503e-05  -4.3655236e-05  -9.4172498e-05   1.4280089e-05  -2.7039575e-04   7.0792649e-05   3.8523666e-05   0.0000000e+00   1.1389788e-05   7.8631942e-05   3.2751256e-05  -9.3954577e-05   5.9623418e-06  -4.5811888e-06  -7.5494170e-05   0.0000000e+00  -1.5308927e-05  -7.2655813e-05  -3.3786158e-05  -1.4522831e-05   1.6498273e-05  -3.0486539e-05   2.0984552e-05  -2.7219355e-06  -4.8638163e-06  -4.9409439e-06  -6.9908079e-06  -5.6276269e-05  -4.4664224e-05  -9.0860098e-05   6.6555417e-05  -1.7261893e-04  -5.6789772e-05   2.6340226e-05  -1.5218094e-04  -5.2197978e-05   9.9217434e-05  -1.7732527e-04  -1.3404873e-04   1.0758062e-06   9.0273085e-06   1.7735099e-04  -1.4675484e-05  -4.0164280e-05  -7.5726336e-07   0.0000000e+00   3.9497753e-04   1.3092864e-04   3.7574463e-05  -1.7805272e-05   4.2868553e-05   5.9768545e-05   5.9532684e-05   0.0000000e+00   2.0550888e-04   7.2275410e-05   1.4721733e-04   8.2526836e-05   2.4933851e-05  -7.3903492e-05   1.7620940e-04  -9.7889953e-05   7.9359947e-05   5.7167051e-05  -3.2001388e-05  -1.0877649e-05  -1.2641860e-05   5.4946499e-05   1.9590412e-04   1.0461838e-04  -1.6849046e-04   2.6708696e-05  -6.8135094e-05   6.1238738e-05   1.9465326e-04   5.6982409e-05   6.3775614e-05  -2.7102843e-05  -4.2192706e-05  -8.9487130e-05   7.4875081e-05  -8.2438693e-05  -5.4188016e-05   0.0000000e+00  -2.3783361e-04  -1.3700778e-04  -7.1753549e-05  -1.2593404e-04   2.9267937e-05  -2.0152204e-04  -9.4899561e-05   0.0000000e+00  -1.6353481e-04  -7.6745462e-05  -9.7715789e-05   1.2399369e-04  -2.6171720e-05  -1.2652750e-04  -1.3811214e-05  -6.1859617e-05  -3.6118709e-05  -1.3144658e-05  -1.4495810e-04  -4.1631709e-05  -6.3770403e-05  -1.1217480e-04  -1.3353559e-04  -1.8614890e-04  -1.7419526e-04  -5.7143721e-05  -5.2393105e-05  -1.5756893e-04  -1.3870617e-04  -9.2274974e-05  -2.4611545e-04
  -1.5428972e-05  -7.6981368e-06  -4.2192523e-06   1.1738678e-05   2.0702309e-05   1.4868891e-05   0.0000000e+00   7.8976904e-05  -6.7132842e-06  -3.4602752e-05  -1.6673354e-05  -9.3389230e-06   4.4097381e-06   3.0212582e-05   0.0000000e+00  -4.7853754e-05  -2.3387126e-05  -1.8928319e-06   7.3555131e-06   2.7936975e-06   1.9812362e-05   1.0028128e-05   1.8614791e-05   8.4885176e-06   1.1542439e-05   2.3573865e-05   2.6815595e-06  -8.2693789e-07  -3.1178354e-05   4.1864475e-05  -3.3049643e-05   3.2705685e-05   1.5566127e-05  -4.2564913e-06  -2.9109266e-06  -2.5285100e-05  -5.0678124e-05  -3.1226428e-05  -1.1804500e-04  -7.6068445e-05  -2.0493379e-04   1.2825827e-04  -1.9859087e-04  -1.9201406e-04   0.0000000e+00   1.5449310e-04   3.7816098e-06  -1.8703790e-04  -2.1579168e-04  -3.1131976e-04  -1.0476320e-04   3.7898284e-05   0.0000000e+00   1.5360437e-04  -5.3546613e-05  -2.3569367e-04  -2.4562768e-04  -1.9340390e-04  -9.1609990e-05  -1.0824963e-04  -7.7870736e-05  -7.3271380e-05  -1.1353648e-04  -1.1544614e-04  -8.4224439e-05  -9.7531523e-05   2.8478192e-05   2.1008626e-04   1.2984877e-04  -1.2895610e-04  -8.3911189e-05   7.4086069e-05   6.9204185e-05   3.2421439e-04   3.4503790e-04   8.9647849e-05  -2.4192603e-04  -1.9675522e-04  -4.3307411e-05   6.0477449e-05   4.5563017e-06   1.2063129e-04   0.0000000e+00  -1.7555003e-04  -8.3144221e-05  -7.3557994e-05  -2.5171135e-04  -2.1839014e-04   1.8357487e-04   1.1395851e-04   0.0000000e+00  -6.8096488e-05  -3.9371429e-05  -2.3741396e-04  -5.5395994e-04  -2.6739862e-04  -2.8250421e-04  -1.1496783e-04  -7.0702282e-05  -3.1564266e-04  -1.1398074e-04  -2.4249574e-04  -4.2564234e-04  -1.9956851e-04  -3.2229523e-04   6.6853245e-05  -3.3762918e-04  -4.8232809e-04  -4.8485892e-04  -5.5370453e-04  -2.8932285e-04  -2.1813423e-05  -3.0401419e-04  -4.0606058e-04   2.4270615e-04   1.0005563e-04   8.6326060e-05   7.7753621e-05   9.5698083e-05   7.8876122e-05   0.0000000e+00  -1.3140127e-04  -3.4721012e-05   5.4441560e-05   3.7775260e-05   6.7963963e-05  -5.1650241e-05  -3.6310387e-05   0.0000000e+00  -1.2841323e-04   2.9457110e-05   8.0146858e-05   1.1363429e-04   3.4948004e-05   1.6191913e-06   1.7010692e-04   1.3936364e-05   1.7788003e-04   1.4330916e-04   2.2400686e-06   2.8673984e-05   4.8075455e-05  -2.9115124e-05  -4.1276379e-06  -1.0834662e-04   1.6072988e-05   5.2808765e-06  -2.6834462e-05  -4.9354861e-05  -4.2967266e-05  -7.3247849e-05  -5.1408483e-05   1.3955132e-04   9.9172061e-05  -2.7365584e-06   6.1418900e-05   3.9456373e-05   2.4642726e-05   0.0000000e+00  -5.2422151e-05  -5.1881523e-05  -1.4794115e-05  -1.6848817e-05   3.4525391e-05  -1.6053771e-05  -5.4675217e-05   0.0000000e+00  -6.0228209e-05  -1.1789758e-05  -8.0147759e-06   1.2647191e-05   1.8042095e-05  -3.9056430e-06   3.8517949e-05  -1.6792756e-06   9.7600725e-05   1.3069895e-05  -7.2064446e-07   3.5597692e-05   1.4281350e-05  -2.8825180e-05  -4.7421723e-05  -8.0948655e-05  -3.1303368e-06   2.3328004e-05  -1.1178490e-05  -5.9806367e-05  -1.1034815e-04  -5.2353368e-05   1.8731297e-06  -1.0857085e-04  -6.4258972e-05   2.0739665e-05  -2.1436291e-05   1.2288359e-05   1.5239617e-05   0.0000000e+00   1.6046399e-04   6.6465735e-05  -9.2542603e-06  -4.1387036e-05  -7.8278099e-06   1.0984593e-05   1.9544441e-05   0.0000000e+00   6.2501423e-05  -1.0517994e-05  -7.0325148e-05  -6.9695935e-05  -3.5490391e-05  -5.2070595e-05  -7.8610462e-05  -4.1497842e-05  -3.9034385e-05  -2.9944796e-05  -7.0467562e-05  -4.9257153e-05  -4.5383320e-05  -2.4897332e-06   3.9468779e-05   3.7089613e-05  -6.7067668e-05  -2.3362784e-05  -4.5611407e-05  -1.6385597e-05   6.4821665e-05  -9.2251320e-06  -2.5738618e-05  -3.2341625e-05   3.9071770e-05  -1.2076870e-04   7.5251943e-05  -7.8042369e-05  -8.2357705e-05   0.0000000e+00   3.1718170e-05  -1.4848099e-04  -1.0662914e-04  -1.2297526e-04  -2.0534667e-04  -1.4569563e-04  -6.7401119e-05   0.0000000e+00  -3.0819032e-04  -6.0951022e-05   2.6882100e-06  -2.4618095e-05  -1.1008647e-04  -4.3745129e-05   8.5683300e-05  -8.8450292e-06   4.5321395e-05   1.3672454e-04  -2.9962809e-05  -7.9422329e-05   4.1701468e-05  -1.4895815e-04  -2.4267239e-05  -5.3521839e-04   3.7467455e-05   7.5207137e-05  -2.0558373e-05  -8.7172347e-05  -5.2530007e-04  -5.0735177e-04  -3.1348892e-04  -1.5316905e-05  -4.6685331e-05   7.7559202e-05   6.5026511e-05  -6.2609717e-05  -1.7924456e-05   0.0000000e+00   2.2643941e-04   1.7392656e-04   2.2467039e-05  -1.1738580e-04  -6.8674146e-05  -6.1018582e-06   4.2641491e-05   0.0000000e+00  -5.6444758e-05  -7.8758928e-05  -5.4903291e-05  -3.4924488e-05  -6.6001674e-05  -1.3098996e-04  -3.7105496e-05  -6.2900987e-05  -7.4568772e-05  -1.2827440e-05  -1.2523017e-04  -1.3665385e-04  -4.5566237e-05  -3.2104070e-06   2.9626051e-05  -4.3408392e-05  -1.4219952e-04  -1.1615930e-04  -9.1404977e-05  -4.0575623e-05   2.5953855e-05  -6.9211984e-05  -3.6882075e-05  -4.3599206e-05  -9.9276699e-05   1.3361804e-05  -3.0575333e-04   8.2727871e-05   4.2750928e-05   0.0000000e+00  -4.3533494e-06   8.0990222e-05   3.5279574e-05  -8.6494820e-05   1.3015036e-05  -6.5136101e-06  -7.7795460e-05   0.0000000e+00  -1.5930677e-05  -7.1658469e-05  -3.7006993e-05  -1.0594129e-05   2.0772551e-05  -3.0076497e-05   2.6304700e-05  -3.9192915e-06   1.6810265e-07  -5.4334526e-07  -9.2601677e-06  -6.5313838e-05  -4.7686779e-05  -1.0045925e-04   6.3150965e-05  -1.8711916e-04  -6.1164054e-05   2.4728418e-05  -1.6376044e-04  -5.9846947e-05   1.0615359e-04  -1.8955594e-04  -1.5075154e-04  -4.2170856e-06   1.1187766e-05   2.0068854e-04  -2.7709103e-05  -4.3686411e-05   7.8123051e-06   0.0000000e+00   4.4505294e-04   1.4512873e-04   5.0085148e-05  -9.6242438e-06   6.1762352e-05   6.9318837e-05   6.3942075e-05   0.0000000e+00   2.2470467e-04   8.4451419e-05   1.7305801e-04   9.8708217e-05   2.7713616e-05  -7.8618429e-05   2.0450242e-04  -1.0216728e-04   9.0656902e-05   7.4035733e-05  -3.3376428e-05  -8.9056897e-06  -4.9490773e-06   5.8720189e-05   2.1266597e-04   1.0197559e-04  -1.8448474e-04   2.7483906e-05  -7.1576476e-05   7.0404305e-05   2.1860929e-04   6.2415221e-05   6.6592836e-05  -5.5299165e-05  -5.7872894e-05  -1.0336439e-04   6.3342164e-05  -9.9520037e-05  -9.0137824e-05   0.0000000e+00  -2.7625531e-04  -1.4021697e-04  -6.5033333e-05  -1.1553020e-04  -1.7784941e-06  -1.9659965e-04  -8.6238584e-05   0.0000000e+00  -1.5922394e-04  -5.3543456e-05  -1.0192180e-04   9.5963810e-05  -5.6019262e-05  -1.2500313e-04  -5.3122456e-05  -7.9643418e-05  -5.3057149e-05  -3.9031252e-05  -1.8095814e-04  -6.8890586e-05  -9.8371496e-05  -1.6232327e-04  -1.4523107e-04  -2.6495533e-04  -1.8766811e-04  -6.1666704e-05  -8.2387895e-05  -2.0281051e-04  -1.7365250e-04  -1.3764724e-04  -3.6156158e-04
  -2.0447789e-05  -1.0791827e-05  -3.6689171e-06   1.0569373e-05   2.0370729e-05   1.4061474e-05   0.0000000e+00   9.6943322e-05  -4.1554584e-06  -4.0290476e-05  -2.5726336e-05  -1.2231657e-05   1.9523129e-06   2.9766709e-05   0.0000000e+00  -5.7163814e-05  -3.1201016e-05  -7.5922845e-06   2.0299970e-06  -4.0975474e-07   1.6069679e-05   9.0575098e-06   1.7077726e-05   7.3062858e-06   1.1556443e-05   1.9594766e-05   2.2639344e-07  -3.5481414e-06  -3.5771763e-05   4.2287712e-05  -4.2491679e-05   3.0562099e-05   1.4666437e-05  -5.6225527e-06  -5.2856968e-06  -3.5430828e-05  -5.9756099e-05  -3.6039853e-05  -1.1743189e-04  -6.8200642e-05  -2.2711426e-04   1.6954170e-04  -2.2189501e-04  -2.0671442e-04   0.0000000e+00   1.4521245e-04  -5.4760430e-05  -2.0232432e-04  -2.2347564e-04  -3.2718023e-04  -1.2090242e-04   2.8143246e-05   0.0000000e+00   1.7083959e-04  -6.2239714e-05  -2.4682625e-04  -2.5555672e-04  -2.0297435e-04  -9.5171712e-05  -1.3043156e-04  -8.4895363e-05  -6.8887361e-05  -1.1359771e-04  -1.1922301e-04  -6.9535128e-05  -8.3361080e-05   1.7801705e-05   2.5086826e-04   1.1404458e-04  -1.2882048e-04  -7.3089990e-05   1.0942772e-04   9.1327264e-05   2.9462382e-04   3.6409660e-04   9.8207806e-05  -2.7285590e-04  -2.2415610e-04  -7.2803838e-05   7.3096288e-05  -3.6671923e-05   8.5880068e-05   0.0000000e+00  -1.8408804e-04  -1.3363395e-04  -1.1840147e-04  -3.1476727e-04  -2.8184184e-04   1.4523470e-04   9.7259375e-05   0.0000000e+00  -1.1338391e-04  -8.6644286e-05  -2.9907240e-04  -6.1714322e-04  -3.3212069e-04  -3.6205974e-04  -1.6119059e-04  -1.2425767e-04  -3.5665473e-04  -1.4310275e-04  -3.3059966e-04  -4.9392229e-04  -2.4678843e-04  -3.5189010e-04   9.2441420e-05  -3.7895188e-04  -5.7547047e-04  -5.6415220e-04  -5.9231620e-04  -3.2188917e-04  -3.0350770e-05  -3.1492254e-04  -4.4311673e-04   2.3624942e-04   1.0190769e-04   9.4315935e-05   8.9607405e-05   9.6270431e-05   7.7556450e-05   0.0000000e+00  -1.4379559e-04  -4.2791894e-05   5.7519849e-05   4.2429003e-05   6.6346192e-05  -6.0258998e-05  -3.8487609e-05   0.0000000e+00  -1.3868017e-04   3.1952563e-05   8.3749772e-05   1.0764178e-04   3.8510381e-05   6.8517802e-06   1.6405960e-04   1.3885102e-05   1.7968242e-04   1.4495521e-04   4.4656102e-06   2.9980259e-05   5.3212432e-05  -3.4841261e-05  -7.3039504e-06  -1.1872774e-04   1.9086886e-05   6.2630608e-06  -2.1130080e-05  -4.9534631e-05  -6.3432659e-05  -8.0054405e-05  -5.0110979e-05   1.2762256e-04   1.0454775e-04  -5.5990705e-06   6.0735384e-05   4.2185915e-05   2.5292883e-05   0.0000000e+00  -6.4135987e-05  -5.2935679e-05  -1.9266022e-05  -1.2031772e-05   3.7395043e-05  -2.3576523e-05  -6.0536777e-05   0.0000000e+00  -5.6154788e-05  -8.5617258e-06  -1.1775152e-05   2.3127891e-06   2.0311239e-05  -5.7118437e-07   1.8415880e-05  -2.6793764e-06   8.9827091e-05   3.4929259e-06  -1.8845781e-06   3.6811882e-05   1.0916844e-05  -2.9961412e-05  -5.8461428e-05  -8.8519736e-05  -2.7029511e-06   2.5620013e-05  -7.9947922e-06  -6.6744048e-05  -1.1671577e-04  -5.6012093e-05   3.9369379e-06  -1.4203832e-04  -7.5075700e-05   2.3017490e-05  -3.0096903e-05   7.6409538e-06   7.5895202e-06   0.0000000e+00   1.7271792e-04   7.1850795e-05  -9.6698346e-06  -4.0704707e-05  -9.0900626e-06   1.8594186e-05   2.5579770e-05   0.0000000e+00   7.7092342e-05  -8.4048399e-06  -7.9314354e-05  -8.7318866e-05  -4.0700359e-05  -5.4064965e-05  -1.0098034e-04  -4.8665241e-05  -5.4998975e-05  -3.8832035e-05  -7.7992078e-05  -5.5825458e-05  -5.0260561e-05  -6.1395905e-06   4.3033049e-05   3.9040857e-05  -7.3582713e-05  -2.6226017e-05  -4.4922997e-05  -1.5550100e-05   5.2677235e-05  -1.4137929e-05  -2.5815543e-05  -2.7300332e-05   3.7849676e-05  -1.2978996e-04   8.0860774e-05  -7.6427630e-05  -8.2569912e-05   0.0000000e+00   5.3519773e-06  -1.5516659e-04  -1.1097097e-04  -1.3443481e-04  -2.1652531e-04  -1.5259586e-04  -7.9138381e-05   0.0000000e+00  -3.1737584e-04  -6.3624876e-05   7.7938058e-06  -2.0366182e-05  -1.2034884e-04  -4.4416994e-05   9.5662785e-05  -4.7951185e-06   3.0759206e-05   1.3221094e-04  -3.3185360e-05  -8.9783492e-05   2.7740869e-05  -1.2342943e-04  -9.6180680e-05  -5.4031720e-04   3.4265700e-05   7.5273505e-05  -3.0351262e-05  -1.0830611e-04  -4.6554462e-04  -4.8038707e-04  -3.0396752e-04  -5.2444872e-06  -3.6912865e-05   7.8501676e-05   6.9821580e-05  -6.8945537e-05  -2.0305774e-05   0.0000000e+00   2.4470189e-04   1.5540354e-04   2.0130258e-05  -1.2632778e-04  -6.7098628e-05  -1.9053432e-05   3.8187943e-05   0.0000000e+00  -5.8727773e-05  -1.0221144e-04  -6.6729997e-05  -2.7547069e-05  -6.3240789e-05  -1.4790963e-04  -4.5813756e-05  -7.1388049e-05  -8.7441381e-05  -2.1511185e-05  -1.4071095e-04  -1.4658445e-04  -4.8527325e-05   1.4611420e-06   3.2113730e-05  -4.1542533e-05  -1.5515609e-04  -1.2128481e-04  -8.8269043e-05  -3.5442157e-05   9.0896801e-06  -6.7807499e-05  -4.0855972e-05  -4.2363029e-05  -1.0257928e-04   6.8666288e-06  -3.3500516e-04   9.1737346e-05   4.5160393e-05   0.0000000e+00  -2.4507796e-05   7.8348419e-05   3.5141492e-05  -7.7385315e-05   1.7617290e-05  -9.8859847e-06  -7.8965902e-05   0.0000000e+00  -1.8743208e-05  -6.9703190e-05  -4.0471196e-05  -7.7532692e-06   2.3677382e-05  -3.0223310e-05   3.0145334e-05  -5.8625456e-06   3.6339801e-06   1.2678207e-06  -1.4089058e-05  -7.5519856e-05  -5.1800065e-05  -1.1034122e-04   5.6747005e-05  -2.0003305e-04  -6.6661284e-05   2.1193089e-05  -1.7363357e-04  -6.7994041e-05   1.0987134e-04  -1.9983292e-04  -1.6652298e-04  -1.0215480e-05   1.3266725e-05   2.2204694e-04  -4.0349792e-05  -4.7938059e-05   1.5392846e-05   0.0000000e+00   4.8929286e-04   1.5701095e-04   6.1807966e-05   9.4062125e-07   8.0149395e-05   7.9562486e-05   6.7650074e-05   0.0000000e+00   2.4315780e-04   9.6988724e-05   1.9682872e-04   1.1398068e-04   2.8831319e-05  -8.1819531e-05   2.2984903e-04  -1.0445953e-04   1.0103095e-04   9.0809005e-05  -3.4834588e-05  -5.4406604e-06   3.6982819e-06   6.1618057e-05   2.2518151e-04   9.4820037e-05  -1.9838295e-04   2.7315519e-05  -7.2694529e-05   7.9503530e-05   2.3928310e-04   6.7518141e-05   6.7681039e-05  -8.9521919e-05  -7.6076452e-05  -1.1766405e-04   4.4761631e-05  -1.1556651e-04  -1.2976157e-04   0.0000000e+00  -3.1256642e-04  -1.3928126e-04  -5.4896076e-05  -9.6184130e-05  -3.9695204e-05  -1.8146553e-04  -7.1170554e-05   0.0000000e+00  -1.4706719e-04  -2.1440556e-05  -1.0136965e-04   5.7664279e-05  -8.9989930e-05  -1.1865632e-04  -9.8759307e-05  -9.8676625e-05  -6.9926169e-05  -6.8972929e-05  -2.1867141e-04  -1.0090318e-04  -1.3673729e-04  -2.1833738e-04  -1.5425471e-04  -3.5494896e-04  -1.9830221e-04  -6.6970608e-05  -1.1787687e-04  -2.5090155e-04  -2.0952932e-04  -1.9075224e-04  -4.9112469e-04
  -2.5944522e-05  -1.4152388e-05  -3.4685090e-06   8.9645260e-06   1.9186708e-05   1.2399455e-05   0.0000000e+00   1.1379950e-04  -9.5839607e-07  -4.5814863e-05  -3.5088937e-05  -1.5605810e-05  -9.8287372e-07   2.8540164e-05   0.0000000e+00  -6.6143573e-05  -3.8772481e-05  -1.4060282e-05  -4.7478357e-06  -4.5649569e-06   1.1447628e-05   7.4444300e-06   1.4771605e-05   5.8564603e-06   1.1161463e-05   1.4463458e-05  -2.6726551e-06  -6.7090367e-06  -4.0502574e-05   4.1409147e-05  -5.2265188e-05   2.7152426e-05   1.3004489e-05  -7.4522656e-06  -8.3738539e-06  -4.6100364e-05  -6.8763610e-05  -4.0606123e-05  -1.1461882e-04  -5.8100884e-05  -2.4713793e-04   2.0956159e-04  -2.4305223e-04  -2.1788391e-04   0.0000000e+00   1.3621306e-04  -1.1490681e-04  -2.1444013e-04  -2.2684959e-04  -3.3688103e-04  -1.3611024e-04   1.8552289e-05   0.0000000e+00   1.8748122e-04  -6.9964617e-05  -2.5289828e-04  -2.5804248e-04  -2.0755944e-04  -9.6481078e-05  -1.5266251e-04  -9.0007702e-05  -6.2764446e-05  -1.1145181e-04  -1.1922410e-04  -5.0273393e-05  -6.5029748e-05   8.1972609e-06   2.9142357e-04   9.4541100e-05  -1.2449087e-04  -5.7908449e-05   1.4732068e-04   1.1493855e-04   2.6047239e-04   3.8022361e-04   1.0638478e-04  -3.0352816e-04  -2.5080719e-04  -1.0429241e-04   7.8482010e-05  -8.0584189e-05   4.6184597e-05   0.0000000e+00  -1.8864547e-04  -1.8257507e-04  -1.6467007e-04  -3.8077487e-04  -3.4768682e-04   1.0226755e-04   7.5141278e-05   0.0000000e+00  -1.5802046e-04  -1.3622036e-04  -3.6346783e-04  -6.7630357e-04  -3.9751126e-04  -4.4182414e-04  -2.0662650e-04  -1.7793297e-04  -3.9552476e-04  -1.7123705e-04  -4.1800034e-04  -5.6008479e-04  -2.9244600e-04  -3.7544214e-04   1.1759839e-04  -4.1212787e-04  -6.6783765e-04  -6.4123697e-04  -6.2733276e-04  -3.4923949e-04  -3.5185614e-05  -3.2184744e-04  -4.7348833e-04   2.2538622e-04   1.0209094e-04   1.0102447e-04   1.0154293e-04   9.4305716e-05   7.4658742e-05   0.0000000e+00  -1.5522934e-04  -5.1594034e-05   6.0448359e-05   4.6167980e-05   6.2922532e-05  -6.8832109e-05  -4.1237747e-05   0.0000000e+00  -1.4863142e-04   3.3065225e-05   8.6650827e-05   1.0055672e-04   4.2216521e-05   1.1798160e-05   1.5606707e-04   1.3813401e-05   1.7790435e-04   1.4425595e-04   7.0895864e-06   3.1119692e-05   5.8195233e-05  -4.0660568e-05  -1.2571467e-05  -1.2881214e-04   2.1539003e-05   7.3896365e-06  -1.4778412e-05  -4.8468483e-05  -8.5685632e-05  -8.7266984e-05  -4.7682511e-05   1.1059968e-04   1.0667629e-04  -9.3059095e-06   5.8273343e-05   4.3437974e-05   2.4968988e-05   0.0000000e+00  -7.5530057e-05  -5.3346752e-05  -2.3970487e-05  -7.6888686e-06   3.8938416e-05  -3.1622854e-05  -6.6422379e-05   0.0000000e+00  -5.0955641e-05  -5.2585275e-06  -1.5746606e-05  -1.0000786e-05   2.1844670e-05   2.3578865e-06  -3.5702423e-06  -4.3992628e-06   7.7915881e-05  -7.7653695e-06  -3.7791035e-06   3.6835994e-05   6.2487118e-06  -3.1973406e-05  -6.9973676e-05  -9.6007606e-05  -2.9920272e-06   2.7196077e-05  -4.7390614e-06  -7.3308407e-05  -1.2290859e-04  -5.9932980e-05   5.8183597e-06  -1.7477341e-04  -8.5839117e-05   2.5575126e-05  -4.0176416e-05   2.5720919e-06  -6.3131896e-07   0.0000000e+00   1.8461005e-04   7.8240533e-05  -9.2819044e-06  -3.8650706e-05  -1.0099489e-05   2.7479121e-05   3.2555845e-05   0.0000000e+00   9.3779810e-05  -5.2125287e-06  -8.7045560e-05  -1.0385825e-04  -4.5418718e-05  -5.4757049e-05  -1.2194959e-04  -5.5097454e-05  -7.1136547e-05  -4.7254854e-05  -8.3958853e-05  -6.1746719e-05  -5.4368469e-05  -9.2900496e-06   4.5790527e-05   4.1795849e-05  -7.8806294e-05  -2.8394633e-05  -4.3301413e-05  -1.3675236e-05   3.9599642e-05  -1.8686368e-05  -2.4480946e-05  -2.2466656e-05   3.6906986e-05  -1.3904762e-04   8.8141564e-05  -7.4092198e-05  -8.4015797e-05   0.0000000e+00  -2.4510063e-05  -1.5866840e-04  -1.1484536e-04  -1.4461401e-04  -2.2545965e-04  -1.5802559e-04  -9.1853951e-05   0.0000000e+00  -3.2007149e-04  -6.3830744e-05   1.2448219e-05  -1.8143206e-05  -1.3111122e-04  -4.6048441e-05   1.0274651e-04  -3.0184042e-06   1.2938745e-05   1.2267470e-04  -4.0392826e-05  -1.0223031e-04   8.7560231e-06  -9.4914187e-05  -1.6424590e-04  -5.3907673e-04   2.6418784e-05   7.2418008e-05  -4.3377540e-05  -1.3094488e-04  -3.8426339e-04  -4.4113869e-04  -2.9293851e-04   7.4069641e-06  -2.4342518e-05   7.9369230e-05   7.3873615e-05  -7.4391791e-05  -2.2542545e-05   0.0000000e+00   2.6066981e-04   1.2975496e-04   1.7402004e-05  -1.3407936e-04  -6.2363038e-05  -3.2708481e-05   3.0919541e-05   0.0000000e+00  -6.1051808e-05  -1.2829618e-04  -7.7210887e-05  -1.6784553e-05  -5.6544500e-05  -1.6341640e-04  -5.4795922e-05  -7.9344604e-05  -1.0024676e-04  -3.0333043e-05  -1.5477957e-04  -1.5373944e-04  -4.9899930e-05   7.3399852e-06   3.4466546e-05  -3.8526380e-05  -1.6622714e-04  -1.2410063e-04  -8.1439184e-05  -2.7657986e-05  -1.3088301e-05  -6.4225396e-05  -4.5550442e-05  -4.0353394e-05  -1.0429092e-04  -5.6184800e-06  -3.5713632e-04   9.7300688e-05   4.5597072e-05   0.0000000e+00  -4.7987547e-05   7.0747691e-05   3.2075839e-05  -6.7503624e-05   1.8989536e-05  -1.4632957e-05  -7.9047217e-05   0.0000000e+00  -2.3777425e-05  -6.7206984e-05  -4.4218972e-05  -6.7713523e-06   2.4866211e-05  -3.1137918e-05   3.1972296e-05  -8.5583453e-06   4.9735065e-06  -2.8203067e-07  -2.1648549e-05  -8.6855193e-05  -5.7219084e-05  -1.2055294e-04   4.8086670e-05  -2.1118513e-04  -7.3507565e-05   1.5784671e-05  -1.8210735e-04  -7.6532953e-05   1.1073705e-04  -2.0845537e-04  -1.8104521e-04  -1.6805790e-05   1.5067343e-05   2.4077124e-04  -5.1504082e-05  -5.3089932e-05   2.1330888e-05   0.0000000e+00   5.2615286e-04   1.6615005e-04   7.1843753e-05   1.3338897e-05   9.6909862e-05   9.0057611e-05   7.0519639e-05   0.0000000e+00   2.6069147e-04   1.0949228e-04   2.1763281e-04   1.2776624e-04   2.8064957e-05  -8.3787823e-05   2.5113298e-04  -1.0503817e-04   1.1009513e-04   1.0664674e-04  -3.6833061e-05  -6.3021920e-07   1.2764824e-05   6.3534021e-05   2.3319330e-04   8.3484590e-05  -2.1031005e-04   2.6049268e-05  -7.1615330e-05   8.8263812e-05   2.5600619e-04   7.2279586e-05   6.6979284e-05  -1.2838416e-04  -9.6218269e-05  -1.3214307e-04   1.9539822e-05  -1.2940244e-04  -1.7125207e-04   0.0000000e+00  -3.4550387e-04  -1.3447383e-04  -4.1725983e-05  -6.8082901e-05  -8.2998707e-05  -1.5632686e-04  -4.9967618e-05   0.0000000e+00  -1.2733434e-04   1.8940661e-05  -9.5599957e-05   1.0620582e-05  -1.2682507e-04  -1.0764210e-04  -1.4848344e-04  -1.1814762e-04  -8.5358465e-05  -1.0160374e-04  -2.5660400e-04  -1.3693729e-04  -1.7737945e-04  -2.7835010e-04  -1.6031892e-04  -4.5423690e-04  -2.0580122e-04  -7.3152865e-05  -1.5832459e-04  -3.0034283e-04  -2.4501540e-04  -2.5065977e-04  -6.3083240e-04
  -3.1816511e-05  -1.7669751e-05  -3.8103470e-06   7.0257266e-06   1.7118172e-05   9.8711938e-06   0.0000000e+00   1.2875747e-04   2.7220965e-06  -5.1080922e-05  -4.4418037e-05  -1.9482373e-05  -4.3293135e-06   2.6656407e-05   0.0000000e+00  -7.4447127e-05  -4.5789509e-05  -2.1174765e-05  -1.2912881e-05  -9.6301238e-06   6.1020401e-06   5.1516637e-06   1.1750847e-05   4.1893127e-06   1.0333646e-05   8.3342389e-06  -5.9377184e-06  -1.0224808e-05  -4.5317867e-05   3.9147492e-05  -6.2105874e-05   2.2557211e-05   1.0574890e-05  -9.7184197e-06  -1.2134330e-05  -5.7080359e-05  -7.7474820e-05  -4.4768211e-05  -1.0984059e-04  -4.6302213e-05  -2.6446939e-04   2.4613394e-04  -2.6129512e-04  -2.2490062e-04   0.0000000e+00   1.2972759e-04  -1.7260746e-04  -2.2309022e-04  -2.2615818e-04  -3.4013070e-04  -1.4991702e-04   1.0179982e-05   0.0000000e+00   2.0348078e-04  -7.6244170e-05  -2.5363836e-04  -2.5232815e-04  -2.0655486e-04  -9.5279010e-05  -1.7384465e-04  -9.2735731e-05  -5.5062865e-05  -1.0729536e-04  -1.1495875e-04  -2.6836130e-05  -4.3278201e-05   1.0039364e-06   3.3046806e-04   7.3147040e-05  -1.1570065e-04  -3.8606437e-05   1.8666321e-04   1.3955553e-04   2.2596366e-04   3.9467833e-04   1.1437879e-04  -3.3362709e-04  -2.7612117e-04  -1.3626908e-04   7.4790829e-05  -1.2463115e-04   4.2257210e-06   0.0000000e+00  -1.8835141e-04  -2.2686388e-04  -2.0999384e-04  -4.4748714e-04  -4.1328598e-04   5.8100743e-05   4.9046784e-05   0.0000000e+00  -1.9940849e-04  -1.8560968e-04  -4.2838153e-04  -7.3042502e-04  -4.6121256e-04  -5.1882145e-04  -2.4892711e-04  -2.2910456e-04  -4.3128248e-04  -1.9713149e-04  -5.0091561e-04  -6.2252055e-04  -3.3482640e-04  -3.9233843e-04   1.4186752e-04  -4.3559976e-04  -7.5663443e-04  -7.1405375e-04  -6.5952018e-04  -3.7057860e-04  -3.5038174e-05  -3.2529456e-04  -4.9649913e-04   2.1211946e-04   1.0103455e-04   1.0628691e-04   1.1337341e-04   9.0139784e-05   7.0637281e-05   0.0000000e+00  -1.6588884e-04  -6.0899639e-05   6.3398736e-05   4.8798701e-05   5.7944929e-05  -7.7209587e-05  -4.4755414e-05   0.0000000e+00  -1.5842985e-04   3.2678739e-05   8.8986612e-05   9.3343203e-05   4.6108325e-05   1.6125290e-05   1.4766425e-04   1.3887958e-05   1.7338620e-04   1.4179313e-04   1.0045104e-05   3.2143512e-05   6.2965509e-05  -4.6339101e-05  -2.0093406e-05  -1.3866130e-04   2.3251794e-05   8.6462196e-06  -8.3150032e-06  -4.6413640e-05  -1.0874795e-04  -9.5044799e-05  -4.4434843e-05   9.0237553e-05   1.0557409e-04  -1.3861431e-05   5.4300146e-05   4.3069376e-05   2.3629479e-05   0.0000000e+00  -8.6299718e-05  -5.3543835e-05  -2.8696734e-05  -4.2975270e-06   3.8906692e-05  -3.9954010e-05  -7.2408569e-05   0.0000000e+00  -4.5332748e-05  -2.1013917e-06  -1.9594860e-05  -2.3519950e-05   2.2381262e-05   4.4164175e-06  -2.5574211e-05  -6.9883857e-06   6.2834529e-05  -2.0082470e-05  -6.6110988e-06   3.5479806e-05   3.6026083e-07  -3.5316438e-05  -8.1649246e-05  -1.0366263e-04  -4.3330736e-06   2.7858299e-05  -1.9620468e-06  -7.9592494e-05  -1.2928745e-04  -6.4503284e-05   7.1818558e-06  -2.0532693e-04  -9.6238516e-05   2.8500842e-05  -5.1499121e-05  -2.5142833e-06  -8.8682625e-06   0.0000000e+00   1.9635462e-04   8.5931797e-05  -7.9653833e-06  -3.5224603e-05  -1.0707408e-05   3.7502333e-05   4.0443865e-05   0.0000000e+00   1.1250913e-04  -8.8436749e-07  -9.3210779e-05  -1.1855311e-04  -4.9518711e-05  -5.4183252e-05  -1.4063368e-04  -6.0512249e-05  -8.6686942e-05  -5.4817882e-05  -8.8137265e-05  -6.6831970e-05  -5.7622343e-05  -1.1688060e-05   4.7547327e-05   4.5587236e-05  -8.2532169e-05  -2.9764067e-05  -4.0993748e-05  -1.0834893e-05   2.6780735e-05  -2.2453226e-05  -2.1713549e-05  -1.8369995e-05   3.6519331e-05  -1.4900721e-04   9.7072633e-05  -7.1635146e-05  -8.7526718e-05   0.0000000e+00  -5.6720847e-05  -1.5901792e-04  -1.1851480e-04  -1.5320167e-04  -2.3246020e-04  -1.6229727e-04  -1.0545354e-04   0.0000000e+00  -3.1638473e-04  -6.1144255e-05   1.6353801e-05  -1.8957029e-05  -1.4264757e-04  -4.8832795e-05   1.0642339e-04  -4.1325097e-06  -7.3904591e-06   1.0855645e-04  -5.1932861e-05  -1.1682501e-04  -1.4604156e-05  -6.5039616e-05  -2.2347869e-04  -5.3315789e-04   1.3753317e-05   6.6595858e-05  -5.9373043e-05  -1.5402044e-04  -2.8391490e-04  -3.9141427e-04  -2.8201940e-04   2.2249904e-05  -9.3300930e-06   8.0617718e-05   7.7525095e-05  -7.8850490e-05  -2.4621453e-05   0.0000000e+00   2.7336047e-04   9.8410504e-05   1.4770209e-05  -1.4016478e-04  -5.4279547e-05  -4.6255010e-05   2.0877385e-05   0.0000000e+00  -6.3226582e-05  -1.5579424e-04  -8.5673759e-05  -3.1633289e-06  -4.5904876e-05  -1.7675696e-04  -6.3886566e-05  -8.6523872e-05  -1.1233600e-04  -3.8717373e-05  -1.6685136e-04  -1.5765396e-04  -4.9385672e-05   1.4203025e-05   3.6868272e-05  -3.4496952e-05  -1.7490518e-04  -1.2447838e-04  -7.0942838e-05  -1.7426210e-05  -3.9982972e-05  -5.8403169e-05  -5.1074600e-05  -3.8055532e-05  -1.0472284e-04  -2.4041887e-05  -3.7155053e-04   9.9159378e-05   4.4061277e-05   0.0000000e+00  -7.3429706e-05   5.8620857e-05   2.6022745e-05  -5.7692401e-05   1.6586080e-05  -2.0592583e-05  -7.8118556e-05   0.0000000e+00  -3.0793907e-05  -6.4555714e-05  -4.8225365e-05  -8.2911158e-06   2.4116243e-05  -3.2935484e-05   3.1388451e-05  -1.1963749e-05   3.8048266e-06  -5.7381155e-06  -3.1894848e-05  -9.9184849e-05  -6.4037608e-05  -1.3109468e-04   3.8128611e-05  -2.2041325e-04  -8.1801194e-05   8.6660700e-06  -1.8957425e-04  -8.5318772e-05   1.0944116e-04  -2.1575835e-04  -1.9401950e-04  -2.3907886e-05   1.6352139e-05   2.5629883e-04  -6.0210791e-05  -5.9262229e-05   2.5127270e-05   0.0000000e+00   5.5440878e-04   1.7224642e-04   7.9379527e-05   2.6777794e-05   1.1102163e-04   1.0020458e-04   7.2385191e-05   0.0000000e+00   2.7702343e-04   1.2144442e-04   2.3470744e-04   1.3957087e-04   2.5288132e-05  -8.4943361e-05   2.6745998e-04  -1.0429958e-04   1.1745896e-04   1.2072726e-04  -3.9863002e-05   5.2164348e-06   2.1662825e-05   6.4329749e-05   2.3669076e-04   6.8547951e-05  -2.2055337e-04   2.3521429e-05  -6.8700814e-05   9.6375210e-05   2.6835905e-04   7.6666115e-05   6.4458979e-05  -1.7014611e-04  -1.1754063e-04  -1.4649931e-04  -1.1477214e-05  -1.3989140e-04  -2.1264895e-04   0.0000000e+00  -3.7401024e-04  -1.2628505e-04  -2.6060150e-05  -3.1926405e-05  -1.2983052e-04  -1.2192937e-04  -2.3259170e-05   0.0000000e+00  -1.0071166e-04   6.6509003e-05  -8.4420331e-05  -4.3149580e-05  -1.6510286e-04  -9.2350458e-05  -1.9973723e-04  -1.3717742e-04  -9.8014084e-05  -1.3539261e-04  -2.9315531e-04  -1.7604233e-04  -2.1866233e-04  -3.4025350e-04  -1.6327105e-04  -5.6048031e-04  -2.0997441e-04  -8.0215630e-05  -2.0296468e-04  -3.4956120e-04  -2.7878857e-04  -3.1609912e-04  -7.7620054e-04
  -3.7935802e-05  -2.1217790e-05  -4.8668450e-06   4.8703191e-06   1.4169718e-05   6.5052459e-06   0.0000000e+00   1.4110390e-04   6.6730175e-06  -5.6013666e-05  -5.3393027e-05  -2.3859301e-05  -8.0062914e-06   2.4270192e-05   0.0000000e+00  -8.1749998e-05  -5.1994976e-05  -2.8796599e-05  -2.2321009e-05  -1.5508154e-05   2.0498951e-07   2.1649988e-06   8.0956156e-06   2.3556156e-06   9.0614812e-06   1.3945400e-06  -9.4742295e-06  -1.3990784e-05  -5.0142174e-05   3.5471858e-05  -7.1753637e-05   1.6897969e-05   7.3992986e-06  -1.2343583e-05  -1.6471172e-05  -6.8166390e-05  -8.5656399e-05  -4.8367873e-05  -1.0337181e-04  -3.3372725e-05  -2.7863736e-04   2.7723901e-04  -2.7591290e-04  -2.2723015e-04   0.0000000e+00   1.2790114e-04  -2.2403787e-04  -2.2812536e-04  -2.2178377e-04  -3.3680249e-04  -1.6188383e-04   4.0560960e-06   0.0000000e+00   2.1889785e-04  -8.0609993e-05  -2.4893884e-04  -2.3793077e-04  -1.9951002e-04  -9.1333511e-05  -1.9283130e-04  -9.2659696e-05  -4.5893615e-05  -1.0136488e-04  -1.0603757e-04   2.6740503e-07  -1.8968350e-05  -2.5463017e-06   3.6684635e-04   5.1859829e-05  -1.0226932e-04  -1.5548246e-05   2.2635416e-04   1.6471935e-04   1.9526977e-04   4.0887963e-04   1.2239936e-04  -3.6281512e-04  -2.9955853e-04  -1.6720266e-04   6.0992238e-05  -1.6635469e-04  -3.7267668e-05   0.0000000e+00  -1.8240235e-04  -2.6378186e-04  -2.5210024e-04  -5.1258234e-04  -4.7603197e-04   1.6043322e-05   2.0642493e-05   0.0000000e+00  -2.3528350e-04  -2.3247174e-04  -4.9155937e-04  -7.7864704e-04  -5.2095897e-04  -5.9034829e-04  -2.8598534e-04  -2.7544699e-04  -4.6309367e-04  -2.1970752e-04  -5.7600160e-04  -6.7982891e-04  -3.7246234e-04  -4.0229957e-04   1.6499811e-04  -4.4838247e-04  -8.3928424e-04  -7.8074582e-04  -6.8956799e-04  -3.8541258e-04  -2.8895491e-05  -3.2579512e-04  -5.1179345e-04   1.9848970e-04   9.9224213e-05   1.1002096e-04   1.2489427e-04   8.4247068e-05   6.5992859e-05   0.0000000e+00  -1.7595984e-04  -7.0391853e-05   6.6523597e-05   5.0197491e-05   5.1721324e-05  -8.5240163e-05  -4.9152427e-05   0.0000000e+00  -1.6819880e-04   3.0779331e-05   9.0881848e-05   8.6835441e-05   5.0205405e-05   1.9562436e-05   1.4027211e-04   1.4272986e-05   1.6710179e-04   1.3817971e-04   1.3246368e-05   3.3092319e-05   6.7449966e-05  -5.1629476e-05  -2.9883638e-05  -1.4833630e-04   2.4091290e-05   9.9991104e-06  -2.2801770e-06  -4.3698503e-05  -1.3156331e-04  -1.0349308e-04  -4.0720222e-05   6.8605313e-05   1.0149880e-04  -1.9214825e-05   4.9198027e-05   4.1052226e-05   2.1285330e-05   0.0000000e+00  -9.6264621e-05  -5.4020468e-05  -3.3215167e-05  -2.2583281e-06   3.7110360e-05  -4.8334076e-05  -7.8590728e-05   0.0000000e+00  -4.0074184e-05   7.1328545e-07  -2.2966850e-05  -3.7361836e-05   2.1676496e-05   5.1658607e-06  -4.5685136e-05  -1.0546543e-05   4.5824076e-05  -3.2743140e-05  -1.0568194e-05   3.2570483e-05  -6.6007984e-06  -4.0382028e-05  -9.3185700e-05  -1.1175688e-04  -7.0315617e-06   2.7424139e-05  -2.5808073e-07  -8.5757833e-05  -1.3615395e-04  -7.0122450e-05   7.6799207e-06  -2.3254025e-04  -1.0598202e-04   3.1856658e-05  -6.3814015e-05  -7.2088909e-06  -1.6580698e-05   0.0000000e+00   2.0812709e-04   9.5105350e-05  -5.6524074e-06  -3.0480075e-05  -1.0778510e-05   4.8450749e-05   4.9175112e-05   0.0000000e+00   1.3306578e-04   4.5920242e-06  -9.7593737e-05  -1.3080879e-04  -5.2916131e-05  -5.2459424e-05  -1.5638945e-04  -6.4694301e-05  -1.0099487e-04  -6.1214724e-05  -9.0413210e-05  -7.0940853e-05  -5.9995979e-05  -1.3150922e-05   4.8169891e-05   5.0565685e-05  -8.4627868e-05  -3.0284986e-05  -3.8295842e-05  -7.1833203e-06   1.5375576e-05  -2.5057215e-05  -1.7591546e-05  -1.5442919e-05   3.6900545e-05  -1.6014340e-04   1.0747328e-04  -6.9676063e-05  -9.3811948e-05   0.0000000e+00  -9.0131443e-05  -1.5643441e-04  -1.2222721e-04  -1.5989683e-04  -2.3790847e-04  -1.6575759e-04  -1.1979245e-04   0.0000000e+00  -3.0666319e-04  -5.5234175e-05   1.9301690e-05  -2.3618248e-05  -1.5516849e-04  -5.2835423e-05   1.0636062e-04  -8.5551187e-06  -2.9383245e-05   9.0509128e-05  -6.7806205e-05  -1.3344518e-04  -4.1403935e-05  -3.5347294e-05  -2.6957732e-04  -5.2420968e-04  -3.6052670e-06   5.7920925e-05  -7.7825014e-05  -1.7631886e-04  -1.6763190e-04  -3.3324074e-04  -2.7250987e-04   3.8753906e-05   7.6707866e-06   8.2622769e-05   8.1193457e-05  -8.2264078e-05  -2.6521081e-05   0.0000000e+00   2.8166399e-04   6.3026149e-05   1.2763234e-05  -1.4403726e-04  -4.2791539e-05  -5.8895911e-05   8.2639937e-06   0.0000000e+00  -6.4930827e-05  -1.8323008e-04  -9.1525096e-05   1.2621244e-05  -3.1504061e-05  -1.8718534e-04  -7.2917437e-05  -9.2684916e-05  -1.2301383e-04  -4.6084604e-05  -1.7635813e-04  -1.5793590e-04  -4.6738409e-05   2.1776514e-05   3.9523575e-05  -2.9598742e-05  -1.8069491e-04  -1.2232914e-04  -5.6965804e-05  -5.0830292e-06  -7.0674972e-05  -5.0331016e-05  -5.7465456e-05  -3.5991649e-05  -1.0425400e-04  -4.7905949e-05  -3.7806878e-04   9.7316499e-05   4.0701898e-05   0.0000000e+00  -9.9325018e-05   4.2750096e-05   1.7125073e-05  -4.8706639e-05   1.0136879e-05  -2.7537982e-05  -7.6318145e-05   0.0000000e+00  -3.9304478e-05  -6.2081156e-05  -5.2397509e-05  -1.2769661e-05   2.1339445e-05  -3.5631696e-05   2.8163981e-05  -1.5994976e-05  -5.5416584e-08  -1.5384632e-05  -4.4574014e-05  -1.1228337e-04  -7.2219983e-05  -1.4192028e-04   2.7955635e-05  -2.2759851e-04  -9.1502192e-05   1.1241153e-07  -1.9647092e-04  -9.4176744e-05   1.0692745e-04  -2.2208238e-04  -2.0517974e-04  -3.1493628e-05   1.6849494e-05   2.6819293e-04  -6.5700982e-05  -6.6513950e-05   2.6466019e-05   0.0000000e+00   5.7324069e-04   1.7511958e-04   8.3736742e-05   4.0282830e-05   1.2163465e-04   1.0930173e-04   7.3056536e-05   0.0000000e+00   2.9178179e-04   1.3224013e-04   2.4745070e-04   1.4900208e-04   2.0490743e-05  -8.5834491e-05   2.7820647e-04  -1.0272448e-04   1.2276064e-04   1.3228061e-04  -4.4398078e-05   1.1633989e-05   2.9796123e-05   6.3866649e-05   2.3590365e-04   5.0850756e-05  -2.2952870e-04   1.9587006e-05  -6.4503896e-05   1.0352797e-04   2.7619994e-04   8.0617572e-05   6.0116451e-05  -2.1287196e-04  -1.3917408e-04  -1.6039500e-04  -4.7085525e-05  -1.4603152e-04  -2.5196739e-04   0.0000000e+00  -3.9729631e-04  -1.1539592e-04  -8.5649590e-06   1.1071398e-05  -1.7808693e-04  -7.9518352e-05   7.9957073e-06   0.0000000e+00  -6.8255894e-05   1.1975364e-04  -6.7936271e-05  -1.0127877e-04  -2.0332543e-04  -7.3417870e-05  -2.4984619e-04  -1.5489592e-04  -1.0669414e-04  -1.6875446e-04  -3.2673996e-04  -2.1709176e-04  -2.5892026e-04  -4.0183566e-04  -1.6311149e-04  -6.7103762e-04  -2.1076957e-04  -8.8077004e-05  -2.5083770e-04  -3.9700886e-04  -3.0959816e-04  -3.8553855e-04  -9.2252061e-04
  -4.4153089e-05  -2.4663230e-05  -6.7759347e-06   2.6252536e-06   1.0389173e-05   2.3711915e-06   0.0000000e+00   1.5024536e-04   1.0635449e-05  -6.0554019e-05  -6.1725630e-05  -2.8704878e-05  -1.1919271e-05   2.1557992e-05   0.0000000e+00  -8.7761095e-05  -5.7197097e-05  -3.6771931e-05  -3.2742114e-05  -2.2048683e-05  -6.0636257e-06  -1.5012534e-06   3.9104246e-06   4.0435567e-07   7.3508694e-06  -6.1400350e-06  -1.3172623e-05  -1.7885129e-05  -5.4875321e-05   3.0408017e-05  -8.0959371e-05   1.0332758e-05   3.5268374e-06  -1.5202535e-05  -2.1236006e-05  -7.9152272e-05  -9.3072419e-05  -5.1254221e-05  -9.5517124e-05  -1.9890006e-05  -2.8926210e-04   3.0114080e-04  -2.8629980e-04  -2.2446026e-04   0.0000000e+00   1.3264113e-04  -2.6583708e-04  -2.2955230e-04  -2.1422010e-04  -3.2693428e-04  -1.7162220e-04   1.1319677e-06   0.0000000e+00   2.3390089e-04  -8.2628507e-05  -2.3886189e-04  -2.1468874e-04  -1.8615890e-04  -8.4452715e-05  -2.0851548e-04  -8.9440942e-05  -3.5329814e-05  -9.3930120e-05  -9.2205205e-05   3.0432479e-05   6.9628266e-06  -1.4026639e-06   3.9962166e-04   3.2725818e-05  -8.4119503e-05   1.0789225e-05   2.6534668e-04   1.9001241e-04   1.7225816e-04   4.2428246e-04   1.3063249e-04  -3.9071717e-04  -3.2064288e-04  -1.9563978e-04   3.6977620e-05  -2.0354944e-04  -7.5711791e-05   0.0000000e+00  -1.7013153e-04  -2.9116903e-04  -2.8894985e-04  -5.7381488e-04  -5.3352519e-04  -2.0948811e-05  -8.2928843e-06   0.0000000e+00  -2.6386969e-04  -2.7478376e-04  -5.5081867e-04  -8.2026243e-04  -5.7465927e-04  -6.5413885e-04  -3.1604127e-04  -3.1506434e-04  -4.9026477e-04  -2.3811151e-04  -6.4051987e-04  -7.3088073e-04  -4.0418036e-04  -4.0536429e-04   1.8691673e-04  -4.5013004e-04  -9.1357241e-04  -8.3975258e-04  -7.1800220e-04  -3.9354607e-04  -1.6075806e-05  -3.2387077e-04  -5.1934834e-04   1.8634753e-04   9.7152953e-05   1.1223641e-04   1.3589141e-04   7.7201736e-05   6.1234145e-05   0.0000000e+00  -1.8559415e-04  -7.9680280e-05   6.9942317e-05   5.0317449e-05   4.4599239e-05  -9.2780916e-05  -5.4442873e-05   0.0000000e+00  -1.7801059e-04   2.7456194e-05   9.2442544e-05   8.1677672e-05   5.4501225e-05   2.1917235e-05   1.3505931e-04   1.5115289e-05   1.6004263e-04   1.3400299e-04   1.6594367e-05   3.3993748e-05   7.1561289e-05  -5.6290360e-05  -4.1803037e-05  -1.5788952e-04   2.3977316e-05   1.1397102e-05   2.8209041e-06  -4.0694829e-05  -1.5307723e-04  -1.1265193e-04  -3.6905171e-05   4.7888705e-05   9.4924988e-05  -2.5257897e-05   4.3434708e-05   3.7476258e-05   1.7998529e-05   0.0000000e+00  -1.0539665e-04  -5.5292899e-05  -3.7292700e-05  -1.8657106e-06   3.3439336e-05  -5.6541814e-05  -8.5068753e-05   0.0000000e+00  -3.5997336e-05   3.0217916e-06  -2.5521435e-05  -5.0617562e-05   1.9518885e-05   4.2345660e-06  -6.2110354e-05  -1.5112075e-05   2.8286855e-05  -4.4992758e-05  -1.5806601e-05   2.7968133e-05  -1.4431486e-05  -4.7450627e-05  -1.0430911e-04  -1.2055850e-04  -1.1337906e-05   2.5742885e-05  -2.1208164e-07  -9.2012838e-05  -1.4372726e-04  -7.7168957e-05   6.9836594e-06  -2.5556632e-04  -1.1481465e-04   3.5665555e-05  -7.6808742e-05  -1.1126433e-05  -2.3277675e-05   0.0000000e+00   2.2003424e-04   1.0580022e-04  -2.3417905e-06  -2.4527156e-05  -1.0204510e-05   6.0038277e-05   5.8644420e-05   0.0000000e+00   1.5505612e-04   1.1177694e-05  -1.0008201e-04  -1.4021447e-04  -5.5577298e-05  -4.9774598e-05  -1.6879767e-04  -6.7509819e-05  -1.1353460e-04  -6.6236752e-05  -9.0794578e-05  -7.3991329e-05  -6.1522786e-05  -1.3580209e-05   4.7608742e-05   5.6782696e-05  -8.5045548e-05  -2.9964833e-05  -3.5535448e-05  -2.9445377e-06   6.4216764e-06  -2.6184877e-05  -1.2297697e-05  -1.3982759e-05   3.8196005e-05  -1.7289930e-04   1.1903983e-04  -6.8810985e-05  -1.0340474e-04   0.0000000e+00  -1.2363581e-04  -1.5131658e-04  -1.2620526e-04  -1.6444198e-04  -2.4224788e-04  -1.6877140e-04  -1.3468653e-04   0.0000000e+00  -2.9150078e-04  -4.5900452e-05   2.1175862e-05  -3.2658270e-05  -1.6880186e-04  -5.7999070e-05   1.0242766e-04  -1.6482984e-05  -5.2156641e-05   6.9355717e-05  -8.7679798e-05  -1.5179526e-04  -7.0502376e-05  -7.2116663e-06  -2.9909042e-04  -5.1377612e-04  -2.5255541e-05   4.6654209e-05  -9.8019793e-05  -1.9657999e-04  -3.9119894e-05  -2.6880328e-04  -2.6530260e-04   5.6281932e-05   2.6131922e-05   8.5648068e-05   8.5326071e-05  -8.4607891e-05  -2.8197837e-05   0.0000000e+00   2.8442055e-04   2.5350905e-05   1.1908504e-05  -1.4512257e-04  -2.7968072e-05  -6.9901541e-05  -6.5645489e-06   0.0000000e+00  -6.5730835e-05  -2.0897818e-04  -9.4275628e-05   2.9789558e-05  -1.3684876e-05  -1.9400801e-04  -8.1711441e-05  -9.7602272e-05  -1.3158963e-04  -5.1885786e-05  -1.8277762e-04  -1.5429514e-04  -4.1788191e-05   2.9762204e-05   4.2635054e-05  -2.3977988e-05  -1.8314158e-04  -1.1760169e-04  -3.9850845e-05   8.9238729e-06  -1.0397541e-04  -4.0069338e-05  -6.4671910e-05  -3.4664955e-05  -1.0330349e-04  -7.6317442e-05  -3.7689111e-04   9.2017092e-05   3.5798526e-05   0.0000000e+00  -1.2414808e-04   2.4190094e-05   5.7137896e-06  -4.1171452e-05  -3.4175794e-07  -3.5207305e-05  -7.3851145e-05   0.0000000e+00  -4.8620369e-05  -6.0037120e-05  -5.6574311e-05  -2.0423619e-05   1.6587791e-05  -3.9152602e-05   2.2262932e-05  -2.0530565e-05  -6.5860287e-06  -2.9224896e-05  -5.9240262e-05  -1.2584604e-04  -8.1611379e-05  -1.5293714e-04   1.8680253e-05  -2.3267518e-04  -1.0243546e-04  -9.5130213e-06  -2.0324060e-04  -1.0292292e-04   1.0429742e-04  -2.2774566e-04  -2.1430011e-04  -3.9597806e-05   1.6272729e-05   2.7614768e-04  -6.7477963e-05  -7.4850044e-05   2.5198680e-05   0.0000000e+00   5.8226130e-04   1.7474303e-04   8.4405059e-05   5.2747637e-05   1.2806337e-04   1.1659451e-04   7.2349484e-05   0.0000000e+00   3.0456877e-04   1.4121894e-04   2.5542026e-04   1.5576837e-04   1.3732325e-05  -8.7071666e-05   2.8303648e-04  -1.0085761e-04   1.2564298e-04   1.4063345e-04  -5.0863435e-05   1.8026719e-05   3.6586775e-05   6.1995825e-05   2.3129417e-04   3.1400200e-05  -2.3774146e-04   1.4111628e-05  -5.9746555e-05   1.0942544e-04   2.7967163e-04   8.4056859e-05   5.3971883e-05  -2.5458997e-04  -1.6021264e-04  -1.7347464e-04  -8.5819245e-05  -1.4704845e-04  -2.8733206e-04   0.0000000e+00  -4.1488788e-04  -1.0261810e-04   9.9873223e-06   5.9258603e-05  -2.2554345e-04  -3.0773866e-05   4.2559967e-05   0.0000000e+00  -3.1329108e-05   1.7681467e-04  -4.6552617e-05  -1.6122537e-04  -2.3999838e-04  -5.1700788e-05  -2.9620739e-04  -1.7051111e-04  -1.1043431e-04  -2.0016677e-04  -3.5591528e-04  -2.5886095e-04  -2.9656001e-04  -4.6094032e-04  -1.5999157e-04  -7.8311730e-04  -2.0828168e-04  -9.6597114e-05  -3.0083557e-04  -4.4126085e-04  -3.3635436e-04  -4.5727040e-04  -1.0651611e-03
  -5.0298923e-05  -2.7870044e-05  -9.6247083e-06   4.1735530e-07   5.8687848e-06  -2.4219259e-06   0.0000000e+00   1.5574770e-04   1.4321496e-05  -6.4655283e-05  -6.9171873e-05  -3.3955032e-05  -1.5960579e-05   1.8704815e-05   0.0000000e+00  -9.2235296e-05  -6.1274208e-05  -4.4926674e-05  -4.3863990e-05  -2.9053051e-05  -1.2520930e-05  -5.8001690e-06  -6.7979616e-07  -1.6136466e-06   5.2274832e-06  -1.4032427e-05  -1.6911120e-05  -2.1772580e-05  -5.9395309e-05   2.4041165e-05  -8.9491719e-05   3.0475811e-06  -9.6555516e-07  -1.8129803e-05  -2.6236326e-05  -8.9826231e-05  -9.9493883e-05  -5.3289558e-05  -8.6616148e-05  -6.4169973e-06  -2.9607415e-04   3.1648801e-04  -2.9199668e-04  -2.1633974e-04   0.0000000e+00   1.4549849e-04  -2.9529379e-04  -2.2753535e-04  -2.0403289e-04  -3.1072640e-04  -1.7880824e-04   2.2144647e-06   0.0000000e+00   2.4875305e-04  -8.1925441e-05  -2.2365641e-04  -1.8278952e-04  -1.6645065e-04  -7.4506524e-05  -2.1990363e-04  -8.2848047e-05  -2.3411803e-05  -8.5289523e-05  -7.3372315e-05   6.2974920e-05   3.3552649e-05   5.2356379e-06   4.2814267e-04   1.7715068e-05  -6.1296395e-05   3.9833024e-05   3.0269866e-04   2.1508677e-04   1.6027087e-04   4.4226534e-04   1.3921447e-04  -4.1692351e-04  -3.3898824e-04  -2.2029523e-04   3.5815562e-06  -2.3440474e-04  -1.0882153e-04   0.0000000e+00  -1.5107365e-04  -3.0755396e-04  -3.1885253e-04  -6.2912723e-04  -5.8368972e-04  -5.0480875e-05  -3.5991756e-05   0.0000000e+00  -2.8397095e-04  -3.1094759e-04  -6.0417012e-04  -8.5472672e-04  -6.2053040e-04  -7.0846770e-04  -3.3778096e-04  -3.4657377e-04  -5.1228298e-04  -2.5177191e-04  -6.9245351e-04  -7.7484109e-04  -4.2915535e-04  -4.0188350e-04   2.0768572e-04  -4.4115634e-04  -9.7771935e-04  -8.8984700e-04  -7.4512185e-04  -3.9507805e-04   3.7191057e-06  -3.2001501e-04  -5.1945288e-04   1.7718870e-04   9.5276669e-05   1.1303584e-04   1.4614991e-04   6.9629037e-05   5.6837673e-05   0.0000000e+00  -1.9488216e-04  -8.8328289e-05   7.3727111e-05   4.9195845e-05   3.6943076e-05  -9.9691760e-05  -6.0542393e-05   0.0000000e+00  -1.8787396e-04   2.2890906e-05   9.3751260e-05   7.8289630e-05   5.8960659e-05   2.3089349e-05   1.3285681e-04   1.6528933e-05   1.5312835e-04   1.2977761e-04   1.9980667e-05   3.4861915e-05   7.5202793e-05  -6.0104647e-05  -5.5564150e-05  -1.6735943e-04   2.2889959e-05   1.2773778e-05   6.5563271e-06  -3.7787111e-05  -1.7231656e-04  -1.2248959e-04  -3.3345467e-05   3.0195349e-05   8.6497922e-05  -3.1828220e-05   3.7541934e-05   3.2546552e-05   1.3879245e-05   0.0000000e+00  -1.1382760e-04  -5.7850428e-05  -4.0715584e-05  -3.2919489e-06   2.7866194e-05  -6.4376200e-05  -9.1931499e-05   0.0000000e+00  -3.3882810e-05   4.7031473e-06  -2.6964236e-05  -6.2427051e-05   1.5745441e-05   1.3533797e-06  -7.3318511e-05  -2.0651725e-05   1.1669055e-05  -5.6103800e-05  -2.2424731e-05   2.1581762e-05  -2.2878399e-05  -5.6662338e-05  -1.1479224e-04  -1.3030119e-04  -1.7415320e-05   2.2704338e-05  -2.3447138e-06  -9.8590768e-05  -1.5212385e-04  -8.5961680e-05   4.8162430e-06  -2.7384801e-04  -1.2252788e-04   3.9904710e-05  -9.0129165e-05  -1.3934113e-05  -2.8549353e-05   0.0000000e+00   2.3209399e-04   1.1790515e-04   1.8977602e-06  -1.7535716e-05  -8.9162974e-06   7.1912069e-05   6.8713730e-05   0.0000000e+00   1.7791081e-04   1.8777202e-05  -1.0066934e-04  -1.4653901e-04  -5.7515003e-05  -4.6372148e-05  -1.7762625e-04  -6.8914009e-05  -1.2391305e-04  -6.9767238e-05  -8.9412035e-05  -7.5965147e-05  -6.2291488e-05  -1.2968359e-05   4.5910947e-05   6.4185560e-05  -8.3823890e-05  -2.8866628e-05  -3.3047944e-05   1.6032529e-06   7.6921332e-07  -2.5616621e-05  -6.1076620e-06  -1.4136064e-05   4.0476347e-05  -1.8764310e-04   1.3139185e-04  -6.9578714e-05  -1.1661805e-04   0.0000000e+00  -1.5620870e-04  -1.4420630e-04  -1.3063385e-04  -1.6665274e-04  -2.4594713e-04  -1.7169649e-04  -1.4991149e-04   0.0000000e+00  -2.7170540e-04  -3.3099530e-05   2.1965136e-05  -4.6273351e-05  -1.8357757e-04  -6.4171791e-05   9.4700005e-05  -2.7879022e-05  -7.4859699e-05   4.6022470e-05  -1.1091524e-04  -1.7143531e-04  -1.0063335e-04   1.8238402e-05  -3.0951649e-04  -5.0320240e-04  -5.0551201e-05   3.3194458e-05  -1.1910302e-04  -2.1358337e-04   9.7506916e-05  -2.0034704e-04  -2.6085025e-04   7.4127990e-05   4.5468944e-05   8.9826517e-05   9.0341866e-05  -8.5879026e-05  -2.9578782e-05   0.0000000e+00   2.8053395e-04  -1.2889242e-05   1.2692056e-05  -1.4287508e-04  -1.0022989e-05  -7.8660360e-05  -2.3114385e-05   0.0000000e+00  -6.5129399e-05  -2.3139347e-04  -9.3560653e-05   4.7569216e-05   7.0685232e-06  -1.9663185e-04  -9.0075705e-05  -1.0106901e-04  -1.3742496e-04  -5.5634812e-05  -1.8565977e-04  -1.4656761e-04  -3.4454034e-05   3.7873155e-05   4.6386496e-05  -1.7762235e-05  -1.8186236e-04  -1.1028228e-04  -2.0097153e-05   2.4064593e-05  -1.3847631e-04  -2.7764524e-05  -7.2559229e-05  -3.4514895e-05  -1.0228614e-04  -1.0807723e-04  -3.6855126e-04   8.3716274e-05   2.9735664e-05   0.0000000e+00  -1.4649548e-04   4.1780326e-06  -7.7148864e-06  -3.5542986e-05  -1.4552237e-05  -4.3339237e-05  -7.0998678e-05   0.0000000e+00  -5.7913950e-05  -5.8588741e-05  -6.0539073e-05  -3.1207128e-05   1.0045429e-05  -4.3337932e-05   1.3842477e-05  -2.5420883e-05  -1.5570560e-05  -4.6988441e-05  -7.5287631e-05  -1.3951174e-04  -9.1948266e-05  -1.6401415e-04   1.1348389e-05  -2.3565501e-04  -1.1429741e-04  -1.9772483e-05  -2.1029457e-04  -1.1137609e-04   1.0270763e-04  -2.3301703e-04  -2.2121324e-04  -4.8304181e-05   1.4327443e-05   2.8001437e-04  -6.5367728e-05  -8.4240562e-05   2.1328976e-05   0.0000000e+00   5.8155757e-04   1.7123574e-04   8.1073423e-05   6.3016298e-05   1.2984482e-04   1.2135158e-04   7.0095727e-05   0.0000000e+00   3.1497358e-04   1.4771503e-04   2.5835073e-04   1.5967056e-04   5.1250123e-06  -8.9291619e-05   2.8189353e-04  -9.9266215e-05   1.2578502e-04   1.4523598e-04  -5.9602472e-05   2.3695432e-05   4.1504594e-05   5.8585235e-05   2.2351322e-04   1.1334797e-05  -2.4575671e-04   6.9853783e-06  -5.5249780e-05   1.1380503e-04   2.7918657e-04   8.6895792e-05   4.6057373e-05  -2.9345378e-04  -1.7976940e-04  -1.8539705e-04  -1.2608799e-04  -1.4246781e-04  -3.1708879e-04   0.0000000e+00  -4.2665009e-04  -8.8839082e-05   2.8756740e-05   1.1061147e-04  -2.6999415e-04   2.2291033e-05   7.8992560e-05   0.0000000e+00   8.4799576e-06   2.3557229e-04  -2.0954496e-05  -2.2042987e-04  -2.7372790e-04  -2.8257857e-05  -3.3646370e-04  -1.8337035e-04  -1.0858831e-04  -2.2827794e-04  -3.7946076e-04  -3.0008596e-04  -3.3016779e-04  -5.1559165e-04  -1.5421453e-04  -8.9394890e-04  -2.0277288e-04  -1.0559661e-04  -3.5177018e-04  -4.8109771e-04  -3.5818424e-04  -5.2951535e-04  -1.1998390e-03
  -5.6191956e-05  -3.0709820e-05  -1.3435313e-05  -1.6371279e-06   7.4490823e-07  -7.7274515e-06   0.0000000e+00   1.5737213e-04   1.7431979e-05  -6.8278507e-05  -7.5537445e-05  -3.9502951e-05  -2.0010504e-05   1.5890405e-05   0.0000000e+00  -9.4984084e-05  -6.4173780e-05  -5.3070298e-05  -5.5305278e-05  -3.6279875e-05  -1.8988340e-05  -1.0647126e-05  -5.5330865e-06  -3.6477538e-06   2.7424698e-06  -2.2034019e-05  -2.0559396e-05  -2.5507520e-05  -6.3564635e-05   1.6506261e-05  -9.7141794e-05  -4.7484138e-06  -5.9759301e-06  -2.0932841e-05  -3.1244458e-05  -9.9973136e-05  -1.0470927e-04  -5.4359236e-05  -7.7029474e-05   6.5269058e-06  -2.9893559e-04   3.2238608e-04  -2.9273016e-04  -2.0280793e-04   0.0000000e+00   1.6757025e-04  -3.1046195e-04  -2.2239247e-04  -1.9183250e-04  -2.8854681e-04  -1.8319960e-04   7.9318994e-06   0.0000000e+00   2.6378901e-04  -7.8215207e-05  -2.0375780e-04  -1.4279134e-04  -1.4057234e-04  -6.1445608e-05  -2.2619040e-04  -7.2777798e-05  -1.0168857e-05  -7.5770541e-05  -4.9633384e-05   9.7149475e-05   5.9860690e-05   1.7882154e-05   4.5209417e-04   8.5956244e-06  -3.3984445e-05   7.0933206e-05   3.3761467e-04   2.3967173e-04   1.6195666e-04   4.6401220e-04   1.4821362e-04  -4.4099422e-04  -3.5430154e-04  -2.4013738e-04  -3.7498384e-05  -2.5758658e-04  -1.3475130e-04   0.0000000e+00  -1.2504493e-04  -3.1222484e-04  -3.4054868e-04  -6.7676758e-04  -6.2487187e-04  -7.0849598e-05  -6.0809990e-05   0.0000000e+00  -2.9501510e-04  -3.3987779e-04  -6.4989777e-04  -8.8163770e-04  -6.5714820e-04  -7.5221509e-04  -3.5039311e-04  -3.6915052e-04  -5.2880255e-04  -2.6041200e-04  -7.3057772e-04  -8.1117192e-04  -4.4691939e-04  -3.9247248e-04   2.2745706e-04  -4.2241425e-04  -1.0304411e-03  -9.3017801e-04  -7.7096872e-04  -3.9037514e-04   3.0373383e-05  -3.1467387e-04  -5.1270085e-04   1.7205849e-04   9.3976920e-05   1.1260882e-04   1.5546789e-04   6.2155699e-05   5.3211921e-05   0.0000000e+00  -2.0384417e-04  -9.5886798e-05   7.7895891e-05   4.6954594e-05   2.9118136e-05  -1.0583474e-04  -6.7271444e-05   0.0000000e+00  -1.9773304e-04   1.7346849e-05   9.4869970e-05   7.6854976e-05   6.3514983e-05   2.3075101e-05   1.3411575e-04   1.8582015e-05   1.4712916e-04   1.2591369e-04   2.3293998e-05   3.5700865e-05   7.8275166e-05  -6.2903877e-05  -7.0747769e-05  -1.7676908e-04   2.0874035e-05   1.4052371e-05   8.6011253e-06  -3.5342517e-05  -1.8846544e-04  -1.3290820e-04  -3.0362553e-05   1.7378616e-05   7.6976090e-05  -3.8719075e-05   3.2070917e-05   2.6569710e-05   9.0781681e-06   0.0000000e+00  -1.2184037e-04  -6.2111534e-05  -4.3308234e-05  -6.5716530e-06   2.0460004e-05  -7.1664462e-05  -9.9240803e-05   0.0000000e+00  -3.4408477e-05   5.6832597e-06  -2.7086221e-05  -7.2051314e-05   1.0259993e-05  -3.6070653e-06  -7.8153750e-05  -2.7056881e-05  -2.6571548e-06  -6.5427990e-05  -3.0448068e-05   1.3384051e-05  -3.1657247e-05  -6.7985703e-05  -1.2446473e-04  -1.4115353e-04  -2.5315120e-05   1.8252615e-05  -7.0585888e-06  -1.0572059e-04  -1.6135906e-04  -9.6721952e-05   9.8416477e-07  -2.8707578e-04  -1.2896307e-04   4.4500788e-05  -1.0339858e-04  -1.5374763e-05  -3.2089114e-05   0.0000000e+00   2.4422646e-04   1.3115854e-04   6.9301761e-06  -9.7347743e-06  -6.8949991e-06   8.3670972e-05   7.9221090e-05   0.0000000e+00   2.0091165e-04   2.7238081e-05  -9.9450578e-05  -1.4971442e-04  -5.8788422e-05  -4.2531028e-05  -1.8278767e-04  -6.8954107e-05  -1.3185514e-04  -7.1764920e-05  -8.6507054e-05  -7.6910891e-05  -6.2436694e-05  -1.1399765e-05   4.3225646e-05   7.2619716e-05  -8.1088667e-05  -2.7103711e-05  -3.1151106e-05   6.1484108e-06  -9.7393653e-07  -2.3249053e-05   6.2323935e-07  -1.5892966e-05   4.3730734e-05  -2.0463306e-04   1.4410773e-04  -7.2418318e-05  -1.3352610e-04   0.0000000e+00  -1.8693051e-04  -1.3575510e-04  -1.3565588e-04  -1.6644508e-04  -2.4948132e-04  -1.7486842e-04  -1.6521430e-04   0.0000000e+00  -2.4828141e-04  -1.6973668e-05   2.1751186e-05  -6.4297950e-05  -1.9942089e-04  -7.1129493e-05   8.3460647e-05  -4.2480795e-05  -9.6740646e-05   2.1481745e-05  -1.3663068e-04  -1.9182049e-04  -1.3051244e-04   4.0178432e-05  -2.9936440e-04  -4.9356205e-04  -7.8669720e-05   1.8045022e-05  -1.4015124e-04  -2.2623892e-04   2.3791425e-04  -1.3006918e-04  -2.5915217e-04   9.1564943e-05   6.5067708e-05   9.5157705e-05   9.6590422e-05  -8.6085825e-05  -3.0552567e-05   0.0000000e+00   2.6908231e-04  -5.0077637e-05   1.5521212e-05  -1.3682510e-04   1.0701176e-05  -8.4713616e-05  -4.0792291e-05   0.0000000e+00  -6.2608084e-05  -2.4893265e-04  -8.9149538e-05   6.5283061e-05   3.0181466e-05  -1.9460489e-04  -9.7794360e-05  -1.0290450e-04  -1.3998720e-04  -5.6939643e-05  -1.8465670e-04  -1.3473593e-04  -2.4758016e-05   4.5866305e-05   5.0925659e-05  -1.1057395e-05  -1.7657075e-04  -1.0039698e-04   1.6582465e-06   3.9766550e-05  -1.7260744e-04  -1.3659249e-05  -8.0911082e-05  -3.5869040e-05  -1.0158202e-04  -1.4178297e-04  -3.5384719e-04   7.3027639e-05   2.2968975e-05   0.0000000e+00  -1.6520250e-04  -1.5971741e-05  -2.2540065e-05  -3.2092280e-05  -3.1930752e-05  -5.1704460e-05  -6.8119696e-05   0.0000000e+00  -6.6295227e-05  -5.7804407e-05  -6.4039063e-05  -4.4802420e-05   2.0135628e-06  -4.7957704e-05   3.2473208e-06  -3.0496418e-05  -2.6620244e-05  -6.8154849e-05  -9.1992423e-05  -1.5287906e-04  -1.0288481e-04  -1.7499653e-04   6.8449236e-06  -2.3663043e-04  -1.2667852e-04  -3.0181807e-05  -2.1798682e-04  -1.1938242e-04   1.0326305e-04  -2.3810544e-04  -2.2581695e-04  -5.7753551e-05   1.0731265e-05   2.7980113e-04  -5.9526826e-05  -9.4642489e-05   1.4980556e-05   0.0000000e+00   5.7166294e-04   1.6485005e-04   7.3640798e-05   6.9969537e-05   1.2671304e-04   1.2291263e-04   6.6169620e-05   0.0000000e+00   3.2264562e-04   1.5110702e-04   2.5612737e-04   1.6060034e-04  -5.1781511e-06  -9.3106578e-05   2.7498514e-04  -9.8505761e-05   1.2290378e-04   1.4568895e-04  -7.0861289e-05   2.7893019e-05   4.4088491e-05   5.3522099e-05   2.1337663e-04  -8.1724526e-06  -2.5414231e-04  -1.8698459e-06  -5.1877112e-05   1.1644994e-04   2.7539303e-04   8.9056897e-05   3.6408427e-05  -3.2787873e-04  -1.9705388e-04  -1.9585961e-04  -1.6628406e-04  -1.3216793e-04  -3.3991028e-04   0.0000000e+00  -4.3277703e-04  -7.4954463e-05   4.6883936e-05   1.6285986e-04  -3.0937698e-04   7.7451205e-05   1.1572479e-04   0.0000000e+00   4.9466465e-05   2.9377365e-04   7.9186574e-06  -2.7647388e-04  -3.0328671e-04  -4.2802658e-06  -3.6865578e-04  -1.9301150e-04  -1.0087727e-04  -2.5198314e-04  -3.9647950e-04  -3.3954040e-04  -3.5859012e-04  -5.6412132e-04  -1.4621266e-04  -1.0009298e-03  -1.9467145e-04  -1.1488186e-04  -4.0242711e-04  -5.1557194e-04  -3.7449540e-04  -6.0052369e-04  -1.3228373e-03
  -6.1643873e-05  -3.3067336e-05  -1.8160891e-05  -3.4387022e-06  -4.8054197e-06  -1.3368093e-05   0.0000000e+00   1.5509394e-04   1.9679357e-05  -7.1387634e-05  -8.0680523e-05  -4.5207293e-05  -2.3939006e-05   1.3278403e-05   0.0000000e+00  -9.5881935e-05  -6.5907570e-05  -6.0994487e-05  -6.6636947e-05  -4.3457266e-05  -2.5294346e-05  -1.5921648e-05  -1.0495282e-05  -5.6443020e-06  -2.9606919e-08  -2.9888530e-05  -2.3982167e-05  -2.8941867e-05  -6.7236137e-05   7.9781987e-06  -1.0373233e-04  -1.2831953e-05  -1.1379236e-05  -2.3405808e-05  -3.6014654e-05  -1.0938674e-04  -1.0853903e-04  -5.4380247e-05  -6.7142907e-05   1.8475200e-05  -2.9784835e-04   3.1844309e-04  -2.8844376e-04  -1.8402105e-04   0.0000000e+00   1.9944880e-04  -3.1022923e-04  -2.1458311e-04  -1.7825022e-04  -2.6093228e-04  -1.8465498e-04   1.8680382e-05   0.0000000e+00   2.7938116e-04  -7.1326395e-05  -1.7978327e-04  -9.5620269e-05  -1.0894794e-04  -4.5322972e-05  -2.2682209e-04  -5.9272304e-05   4.3544077e-06  -6.5722353e-05  -2.1291348e-05   1.3216851e-04   8.5011420e-05   3.6740191e-05   4.7151725e-04   6.8338240e-06  -2.5207407e-06   1.0338260e-04   3.6947457e-04   2.6358513e-04   1.7917307e-04   4.9043855e-04   1.5761641e-04  -4.6246936e-04  -3.6638420e-04  -2.5442052e-04  -8.3856013e-05  -2.7230061e-04  -1.5217297e-04   0.0000000e+00  -9.2167902e-05  -3.0523834e-04  -3.5325523e-04  -7.1536013e-04  -6.5588282e-04  -8.1128955e-05  -8.1320681e-05   0.0000000e+00  -2.9706261e-04  -3.6103552e-04  -6.8663344e-04  -9.0072940e-04  -6.8351173e-04  -7.8488994e-04  -3.5358847e-04  -3.8253721e-04  -5.3965333e-04  -2.6405262e-04  -7.5445357e-04  -8.3963925e-04  -4.5735137e-04  -3.7797361e-04   2.4641817e-04  -3.9543608e-04  -1.0709909e-03  -9.6028668e-04  -7.9532959e-04  -3.8004472e-04   6.3357511e-05  -3.0824711e-04  -4.9994622e-04   1.7152115e-04   9.3537571e-05   1.1121753e-04   1.6367500e-04   5.5359283e-05   5.0669496e-05   0.0000000e+00  -2.1243491e-04  -1.0193586e-04   8.2405704e-05   4.3795249e-05   2.1470799e-05  -1.1107490e-04  -7.4378073e-05   0.0000000e+00  -2.0746765e-04   1.1145637e-05   9.5842944e-05   7.7331211e-05   6.8067933e-05   2.1965843e-05   1.3890621e-04   2.1286619e-05   1.4262352e-04   1.2270429e-04   2.6420981e-05   3.6506133e-05   8.0684731e-05  -6.4587120e-05  -8.6830063e-05  -1.8613258e-04   1.8036142e-05   1.5151384e-05   8.7667479e-06  -3.3684975e-05  -2.0092963e-04  -1.4374937e-04  -2.8223613e-05   1.0899385e-05   6.7163708e-05  -4.5692260e-05   2.7555410e-05   1.9933149e-05   3.7754230e-06   0.0000000e+00  -1.2984337e-04  -6.8376849e-05  -4.4951478e-05  -1.1599816e-05   1.1382666e-05  -7.8261478e-05  -1.0701434e-04   0.0000000e+00  -3.8074018e-05   5.9401072e-06  -2.5786801e-05  -7.8931257e-05   3.0449415e-06  -1.0616065e-05  -7.5923203e-05  -3.4148766e-05  -1.3494736e-05  -7.2453834e-05  -3.9819866e-05   3.4254564e-06  -4.0464069e-05  -8.1212002e-05  -1.3322499e-04  -1.5319724e-04  -3.4959155e-05   1.2398044e-05  -1.4585836e-05  -1.1359681e-04  -1.7135231e-04  -1.0954336e-04  -4.5961002e-06  -2.9513648e-04  -1.3400924e-04   4.9333339e-05  -1.1624025e-04  -1.5282200e-05  -3.3708057e-05   0.0000000e+00   2.5626505e-04   1.4516904e-04   1.2558314e-05  -1.4088016e-06  -4.1780578e-06   9.4887668e-05   8.9993245e-05   0.0000000e+00   2.2324414e-04   3.6354477e-05  -9.6611630e-05  -1.4981169e-04  -5.9495359e-05  -3.8547010e-05  -1.8429419e-04  -6.7764602e-05  -1.3718495e-04  -7.2246245e-05  -8.2418756e-05  -7.6940148e-05  -6.2125642e-05  -9.0505085e-06   3.9797617e-05   8.1836879e-05  -7.7045396e-05  -2.4829581e-05  -3.0118891e-05   1.0367913e-05   1.5212916e-06  -1.9106697e-05   7.4779592e-06  -1.9093895e-05   4.7878724e-05  -2.2398731e-04   1.5676917e-04  -7.7641864e-05  -1.5395134e-04   0.0000000e+00  -2.1499240e-04  -1.2666108e-04  -1.4136961e-04  -1.6385780e-04  -2.5330775e-04  -1.7857409e-04  -1.8031576e-04   0.0000000e+00  -2.2238406e-04   2.1419279e-06   2.0696045e-05  -8.6214252e-05  -2.1616712e-04  -7.8609552e-05   6.9172882e-05  -5.9825183e-05  -1.1719806e-04  -3.3176591e-06  -1.6377628e-04  -2.1235376e-04  -1.5892801e-04   5.8127215e-05  -2.6817318e-04  -4.8560460e-04  -1.0867930e-04   1.7889234e-06  -1.6024991e-04  -2.3366879e-04   3.7781311e-04  -5.9989469e-05  -2.5979335e-04   1.0788786e-04   8.4307418e-05   1.0152220e-04   1.0430019e-04  -8.5236711e-05  -3.0967513e-05   0.0000000e+00   2.4944982e-04  -8.4753291e-05   2.0698838e-05  -1.2664083e-04   3.3739668e-05  -8.7785603e-05  -5.8944323e-05   0.0000000e+00  -5.7685190e-05  -2.6027519e-04  -8.0961915e-05   8.2420260e-05   5.5022756e-05  -1.8764954e-04  -1.0462707e-04  -1.0296304e-04  -1.3888365e-04  -5.5524404e-05  -1.7954251e-04  -1.1894095e-04  -1.2831843e-05   5.3572203e-05   5.6351645e-05  -3.9357497e-06  -1.6711072e-04  -8.8014698e-05   2.4661093e-05   5.5452059e-05  -2.0468233e-04   1.9152401e-06  -8.9449474e-05  -3.8908438e-05  -1.0150001e-04  -1.7594653e-04  -3.3376478e-04   6.0672917e-05   1.5988586e-05   0.0000000e+00  -1.7943829e-04  -3.4971308e-05  -3.8055144e-05  -3.0892421e-05  -5.1694751e-05  -6.0132616e-05  -6.5644900e-05   0.0000000e+00  -7.2888064e-05  -5.7661068e-05  -6.6800146e-05  -6.0645220e-05  -7.1095397e-06  -5.2733356e-05  -9.0175956e-06  -3.5577046e-05  -3.9213621e-05  -9.1998926e-05  -1.0856569e-04  -1.6553591e-04  -1.1401621e-04  -1.8571975e-04   5.8224717e-06  -2.3578845e-04  -1.3908688e-04  -4.0235176e-05  -2.2658096e-04  -1.2682602e-04   1.0691179e-04  -2.4314795e-04  -2.2808876e-04  -6.8131318e-05   5.2355087e-06   2.7565279e-04  -5.0435131e-05  -1.0600036e-04   6.3390528e-06   0.0000000e+00   5.5352745e-04   1.5595738e-04   6.2200818e-05   7.2586699e-05   1.1859051e-04   1.2076072e-04   6.0490346e-05   0.0000000e+00   3.2733350e-04   1.5086635e-04   2.4880337e-04   1.5851886e-04  -1.7029245e-05  -9.9056420e-05   2.6273159e-04  -9.9096743e-05   1.1677270e-04   1.4175930e-04  -8.4770417e-05   2.9859463e-05   4.3965672e-05   4.6746000e-05   2.0179018e-04  -2.5997821e-05  -2.6344480e-04  -1.2496520e-05  -5.0449074e-05   1.1721459e-04   2.6912469e-04   9.0489358e-05   2.5074319e-05  -3.5664136e-04  -2.1141707e-04  -2.0462173e-04  -2.0493325e-04  -1.1641990e-04  -3.5487290e-04   0.0000000e+00  -4.3376285e-04  -6.1811566e-05   6.3529797e-05   2.1362400e-04  -3.4190507e-04   1.3239852e-04   1.5117816e-04   0.0000000e+00   8.9921839e-05   3.4916698e-04   3.8927596e-05  -3.2721138e-04  -3.2769107e-04   1.8939272e-05  -3.9133358e-04  -1.9919756e-04  -8.7431610e-05  -2.7049243e-04  -4.0646422e-04  -3.7609791e-04  -3.8098985e-04  -6.0525456e-04  -1.3652551e-04  -1.1017512e-03  -1.8455620e-04  -1.2427222e-04  -4.5163755e-04  -5.4405416e-04  -3.8499536e-04  -6.6867214e-04  -1.4311690e-03
  -6.6470447e-05  -3.4848547e-05  -2.3679382e-05  -4.9150837e-06  -1.0570932e-05  -1.9141633e-05   0.0000000e+00   1.4910396e-04   2.0808936e-05  -7.3945561e-05  -8.4510178e-05  -5.0888996e-05  -2.7607923e-05   1.1002757e-05   0.0000000e+00  -9.4872118e-05  -6.6542372e-05  -6.8477012e-05  -7.7409423e-05  -5.0296042e-05  -3.1277768e-05  -2.1468763e-05  -1.5405166e-05  -7.5473505e-06  -2.9871211e-06  -3.7342372e-05  -2.7044544e-05  -3.1929620e-05  -7.0267236e-05  -1.3428413e-06  -1.0912149e-04  -2.0973166e-05  -1.7030113e-05  -2.5349259e-05  -4.0297677e-05  -1.1788457e-04  -1.1084907e-04  -5.3308116e-05  -5.7350793e-05   2.9037691e-05  -2.9296135e-04   3.0477310e-04  -2.7931940e-04  -1.6036968e-04   0.0000000e+00   2.4119658e-04  -2.9433379e-04  -2.0469084e-04  -1.6391336e-04  -2.2858628e-04  -1.8314351e-04   3.4607825e-05   0.0000000e+00   2.9589372e-04  -6.1228029e-05  -1.5252570e-04  -4.2551650e-05  -7.2253549e-05  -2.6317547e-05  -2.2153254e-04  -4.2531052e-05   2.0065997e-05  -5.5515344e-05   1.1142131e-05   1.6722071e-04   1.0823330e-04   6.1695275e-05   4.8679329e-04   1.3517119e-05   3.2596575e-05   1.3644097e-04   3.9784726e-04   2.8672486e-04   2.1293131e-04   5.2211584e-04   1.6732683e-04  -4.8088265e-04  -3.7513328e-04  -2.6272748e-04  -1.3260749e-04  -2.7829012e-04  -1.6032152e-04   0.0000000e+00  -5.2920805e-05  -2.8739909e-04  -3.5668151e-04  -7.4394964e-04  -6.7601696e-04  -8.1189957e-05  -9.6391634e-05   0.0000000e+00  -2.9075220e-04  -3.7442066e-04  -7.1338545e-04  -9.1184194e-04  -6.9905241e-04  -8.0662118e-04  -3.4759559e-04  -3.8701709e-04  -5.4482241e-04  -2.6299639e-04  -7.6440725e-04  -8.6027375e-04  -4.6065288e-04  -3.5938306e-04   2.6475106e-04  -3.6224315e-04  -1.0991278e-03  -9.8008648e-04  -8.1774776e-04  -3.6488383e-04   1.0175013e-04  -3.0110189e-04  -4.8225500e-04   1.7567277e-04   9.4131812e-05   1.0917637e-04   1.7064612e-04   4.9725034e-05   4.9407161e-05   0.0000000e+00  -2.2056206e-04  -1.0612780e-04   8.7157233e-05   3.9990043e-05   1.4311775e-05  -1.1528434e-04  -8.1562294e-05   0.0000000e+00  -2.1690798e-04   4.6497113e-06   9.6700664e-05   7.9470315e-05   7.2496996e-05   1.9936317e-05   1.4694149e-04   2.4593369e-05   1.3997862e-04   1.2032002e-04   2.9250354e-05   3.7268938e-05   8.2351823e-05  -6.5137068e-05  -1.0321573e-04  -1.9545319e-04   1.4537048e-05   1.5993435e-05   7.0162885e-06  -3.3069716e-05  -2.0938855e-04  -1.5480714e-04  -2.7125728e-05   1.1712601e-05   5.7839997e-05  -5.2493590e-05   2.4469127e-05   1.3073211e-05  -1.8316913e-06   0.0000000e+00  -1.3832115e-04  -7.6791495e-05  -4.5605249e-05  -1.8137380e-05   8.8862715e-07  -8.4049616e-05  -1.1521818e-04   0.0000000e+00  -4.5142384e-05   5.5000144e-06  -2.3106211e-05  -8.2741471e-05  -5.8277978e-06  -1.9470034e-05  -6.6458241e-05  -4.1686095e-05  -1.9910010e-05  -7.6845965e-05  -5.0387829e-05  -8.1543644e-06  -4.8995591e-05  -9.5961085e-05  -1.4103911e-04  -1.6640770e-04  -4.6133563e-05   5.2230537e-06  -2.4950907e-05  -1.2235195e-04  -1.8194971e-04  -1.2436616e-04  -1.1872420e-05  -2.9806715e-04  -1.3759459e-04   5.4242809e-05  -1.2829290e-04  -1.3587801e-05  -3.3341740e-05   0.0000000e+00   2.6797572e-04   1.5944269e-04   1.8537001e-05   7.1155008e-06  -8.5674276e-07   1.0513750e-04   1.0085459e-04   0.0000000e+00   2.4407510e-04   4.5873997e-05  -9.2416419e-05  -1.4701608e-04  -5.9766569e-05  -3.4710171e-05  -1.8222695e-04  -6.5557295e-05  -1.3980202e-04  -7.1263855e-05  -7.7558027e-05  -7.6221284e-05  -6.1543315e-05  -6.1786234e-06   3.5952401e-05   9.1510050e-05  -7.1968089e-05  -2.2226745e-05  -3.0163053e-05   1.3953105e-05   8.2803603e-06  -1.3349782e-05   1.4005757e-05  -2.3450741e-05   5.2756584e-05  -2.4565506e-04   1.6899274e-04  -8.5411425e-05  -1.7747786e-04   0.0000000e+00  -2.3970139e-04  -1.1761682e-04  -1.4782195e-04  -1.5908444e-04  -2.5783117e-04  -1.8303992e-04  -1.9492462e-04   0.0000000e+00  -1.9527168e-04   2.3707537e-05   1.9023042e-05  -1.1118490e-04  -2.3356476e-04  -8.6349519e-05   5.2458602e-05  -7.9285365e-05  -1.3582397e-04  -2.7498510e-05  -1.9121688e-04  -2.3243962e-04  -1.8482295e-04   7.1958169e-05  -2.1651232e-04  -4.7971885e-04  -1.3960905e-04  -1.4962885e-05  -1.7856727e-04  -2.3526614e-04   5.1323264e-04   8.1736486e-06  -2.6201412e-04   1.2246764e-04   1.0259422e-04   1.0870331e-04   1.1356030e-04  -8.3332971e-05  -3.0633647e-05   0.0000000e+00   2.2144994e-04  -1.1563896e-04   2.8395061e-05  -1.1217308e-04   5.8527535e-05  -8.7788933e-05  -7.6902121e-05   0.0000000e+00  -4.9964359e-05  -2.6442265e-04  -6.9062685e-05   9.8688867e-05   8.0948438e-05  -1.7569423e-04  -1.1030542e-04  -1.0113838e-04  -1.3390401e-04  -5.1249666e-05  -1.7023772e-04  -9.9492733e-05   1.0832897e-06   6.0917137e-05   6.2709055e-05   3.5819872e-06  -1.5346970e-04  -7.3247587e-05   4.8080339e-05   7.0574710e-05  -2.3295742e-04   1.8555539e-05  -9.7853927e-05  -4.3647483e-05  -1.0225550e-04  -2.0911482e-04  -3.0941078e-04   4.7419153e-05   9.2820728e-06   0.0000000e+00  -1.8877788e-04  -5.1657471e-05  -5.3520512e-05  -3.1828202e-05  -7.2904320e-05  -6.8536609e-05  -6.4059026e-05   0.0000000e+00  -7.6906795e-05  -5.8049858e-05  -6.8553101e-05  -7.7964409e-05  -1.6860385e-05  -5.7354777e-05  -2.2333119e-05  -4.0481049e-05  -5.2732415e-05  -1.1764798e-04  -1.2420856e-04  -1.7708981e-04  -1.2491740e-04  -1.9602770e-04   8.6411787e-06  -2.3340311e-04  -1.5098253e-04  -4.9435079e-05  -2.3623545e-04  -1.3364602e-04   1.1436137e-04  -2.4821188e-04  -2.2809085e-04  -7.9646911e-05  -2.3575570e-06   2.6786174e-04  -3.8837688e-05  -1.1828566e-04  -4.3784487e-06   0.0000000e+00   5.2845306e-04   1.4502547e-04   4.7025697e-05   7.0031077e-05   1.0555673e-04   1.1454922e-04   5.3055103e-05   0.0000000e+00   3.2890671e-04   1.4661164e-04   2.3656061e-04   1.5344554e-04  -3.0290901e-05  -1.0757267e-04   2.4571926e-04  -1.0148506e-04   1.0722208e-04   1.3339532e-04  -1.0135567e-04   2.8881167e-05   4.0870946e-05   3.8245615e-05   1.8971849e-04  -4.1130300e-05  -2.7415073e-04  -2.4888167e-05  -5.1678740e-05   1.1601286e-04   2.6133530e-04   9.1182466e-05   1.2115075e-05  -3.7896314e-04  -2.2239714e-04  -2.1152133e-04  -2.4078455e-04  -9.5895802e-05  -3.6151155e-04   0.0000000e+00  -4.3034752e-04  -5.0138993e-05   7.7929373e-05   2.6058808e-04  -3.6617191e-04   1.8488551e-04   1.8385075e-04   0.0000000e+00   1.2823526e-04   3.9965351e-04   7.0803624e-05  -3.7088173e-04  -3.4624166e-04   4.0097560e-05  -4.0363904e-04  -2.0192488e-04  -6.8774302e-05  -2.8336825e-04  -4.0931793e-04  -4.0879399e-04  -3.9689673e-04  -6.3816959e-04  -1.2576936e-04  -1.1945149e-03  -1.7313577e-04  -1.3361455e-04  -4.9833396e-04  -5.6625811e-04  -3.8971511e-04  -7.3254201e-04  -1.5226818e-03
  -7.0497285e-05  -3.5984380e-05  -2.9801651e-05  -6.0235431e-06  -1.6317251e-05  -2.4829376e-05   0.0000000e+00   1.3978811e-04   2.0618903e-05  -7.5909486e-05  -8.6986032e-05  -5.6340937e-05  -3.0874396e-05   9.1629503e-06   0.0000000e+00  -9.1968883e-05  -6.6188785e-05  -7.5288853e-05  -8.7180533e-05  -5.6503930e-05  -3.6793145e-05  -2.7104390e-05  -2.0100136e-05  -9.2972793e-06  -6.0071927e-06  -4.4152360e-05  -2.9615901e-05  -3.4334459e-05  -7.2529971e-05  -1.1236919e-05  -1.1320963e-04  -2.8944268e-05  -2.2768628e-05  -2.6587046e-05  -4.3860741e-05  -1.2532258e-04  -1.1156327e-04  -5.1143861e-05  -4.8055614e-05   3.7896264e-05  -2.8456555e-04   2.8198037e-04  -2.6578638e-04  -1.3248279e-04   0.0000000e+00   2.9236495e-04  -2.6333912e-04  -1.9339963e-04  -1.4943834e-04  -1.9237772e-04  -1.7875825e-04   5.5598919e-05   0.0000000e+00   3.1364358e-04  -4.8037281e-05  -1.2292801e-04   1.4830829e-05  -3.1389406e-05  -4.7417035e-06  -2.1037499e-04  -2.2908901e-05   3.6803049e-05  -4.5531884e-05   4.6940721e-05   2.0148778e-04   1.2888273e-04   9.2337374e-05   4.9860944e-04   2.9301556e-05   7.0704301e-05   1.6935411e-04   4.2249158e-04   3.0906007e-04   2.6339093e-04   5.5924206e-04   1.7716462e-04  -4.9577510e-04  -3.8054563e-04  -2.6498050e-04  -1.8065279e-04  -2.7581391e-04  -1.5899648e-04   0.0000000e+00  -8.1265171e-06  -2.6017456e-04  -3.5101575e-04  -7.6203464e-04  -6.8501366e-04  -7.1656473e-05  -1.0524682e-04   0.0000000e+00  -2.7721420e-04  -3.8052746e-04  -7.2955024e-04  -9.1490198e-04  -7.0364133e-04  -8.1808897e-04  -3.3310607e-04  -3.8334964e-04  -5.4442136e-04  -2.5777900e-04  -7.6143145e-04  -8.7333392e-04  -4.5729025e-04  -3.3778144e-04   2.8257728e-04  -3.2522385e-04  -1.1150882e-03  -9.8983667e-04  -8.3758959e-04  -3.4583765e-04   1.4429056e-04  -2.9357220e-04  -4.6085632e-04   1.8418936e-04   9.5821359e-05   1.0682396e-04   1.7632138e-04   4.5607937e-05   4.9494001e-05   0.0000000e+00  -2.2811441e-04  -1.0823502e-04   9.1998561e-05   3.5865668e-05   7.9037152e-06  -1.1835404e-04  -8.8513914e-05   0.0000000e+00  -2.2585193e-04  -1.7694630e-06   9.7466242e-05   8.2855137e-05   7.6665362e-05   1.7225677e-05   1.5763218e-04   2.8391102e-05   1.3934822e-04   1.1881915e-04   3.1673852e-05   3.7977892e-05   8.3222837e-05  -6.4634805e-05  -1.1927890e-04  -2.0473818e-04   1.0582543e-05   1.6511643e-05   3.4730911e-06  -3.3668596e-05  -2.1382873e-04  -1.6584814e-04  -2.7188441e-05   2.0190925e-05   4.9690683e-05  -5.8872209e-05   2.3185337e-05   6.4451614e-06  -7.5447963e-06   0.0000000e+00  -1.4777698e-04  -8.7320167e-05  -4.5311597e-05  -2.5828700e-05  -1.0690695e-05  -8.8937286e-05  -1.2375388e-04   0.0000000e+00  -5.5593920e-05   4.4381607e-06  -1.9234027e-05  -8.3424634e-05  -1.6192855e-05  -2.9791358e-05  -5.0156960e-05  -4.9379825e-05  -2.1308589e-05  -7.8481936e-05  -6.1907255e-05  -2.1119451e-05  -5.6963418e-05  -1.1169648e-04  -1.4794381e-04  -1.8064237e-04  -5.8490366e-05  -3.1126916e-06  -3.7946650e-05  -1.3203597e-04  -1.9294879e-04  -1.4096489e-04  -2.0648290e-05  -2.9601400e-04  -1.3968005e-04   5.9046552e-05  -1.3922527e-04  -1.0322895e-05  -3.1046555e-05   0.0000000e+00   2.7909089e-04   1.7342103e-04   2.4588082e-05   1.5480540e-05   2.9245379e-06   1.1402736e-04   1.1164028e-04   0.0000000e+00   2.6263218e-04   5.5509848e-05  -8.7190754e-05  -1.4160407e-04  -5.9755167e-05  -3.1289964e-05  -1.7671349e-04  -6.2604291e-05  -1.3966503e-04  -6.8890577e-05  -7.2380419e-05  -7.4967421e-05  -6.0874840e-05  -3.1083659e-06   3.2071097e-05   1.0125516e-04  -6.6183904e-05  -1.9492641e-05  -3.1418830e-05   1.6631814e-05   1.9022361e-05  -6.2718087e-06   1.9747473e-05  -2.8579166e-05   5.8139027e-05  -2.6940970e-04   1.8046167e-04  -9.5728650e-05  -2.0347874e-04   0.0000000e+00  -2.6048119e-04  -1.0925455e-04  -1.5501719e-04  -1.5246640e-04  -2.6339720e-04  -1.8842452e-04  -2.0874491e-04   0.0000000e+00  -1.6824408e-04   4.6996168e-05   1.6989899e-05  -1.3811539e-04  -2.5130342e-04  -9.4115945e-05   3.4052499e-05  -1.0011609e-04  -1.5242969e-04  -5.0313142e-05  -2.1782532e-04  -2.5153023e-04  -2.0736979e-04   8.1873561e-05  -1.4596133e-04  -4.7593137e-04  -1.7053213e-04  -3.1608705e-05  -1.9442150e-04  -2.3074716e-04   6.4081805e-04   7.3115823e-05  -2.6482175e-04   1.3478911e-04   1.1938651e-04   1.1642451e-04   1.2429662e-04  -8.0363432e-05  -2.9324817e-05   0.0000000e+00   1.8544034e-04  -1.4164084e-04   3.8635991e-05  -9.3488614e-05   8.4423135e-05  -8.4827022e-05  -9.4014715e-05   0.0000000e+00  -3.9179504e-05  -2.6077673e-04  -5.3659394e-05   1.1403309e-04   1.0734529e-04  -1.5888621e-04  -1.1454947e-04  -9.7373111e-05  -1.2503860e-04  -4.4118242e-05  -1.5682043e-04  -7.6863154e-05   1.6639514e-05   6.7933740e-05   6.9989601e-05   1.1526912e-05  -1.3580465e-04  -5.6261252e-05   7.1050641e-05   8.4660281e-05  -2.5569289e-04   3.5821616e-05  -1.0578603e-04  -4.9925816e-05  -1.0394910e-04  -2.3998588e-04  -2.8193997e-04   3.4030221e-05   3.2977011e-06   0.0000000e+00  -1.9323410e-04  -6.5074807e-05  -6.8209845e-05  -3.4613769e-05  -9.4510136e-05  -7.6913536e-05  -6.3874638e-05   0.0000000e+00  -7.7725776e-05  -5.8795368e-05  -6.9059180e-05  -9.5843813e-05  -2.6735910e-05  -6.1500177e-05  -3.6018625e-05  -4.5034419e-05  -6.6516108e-05  -1.4415016e-04  -1.3816255e-04  -1.8718767e-04  -1.3517238e-04  -2.0578403e-04   1.5340737e-05  -2.2982909e-04  -1.6180933e-04  -5.7317829e-05  -2.4699264e-04  -1.3984142e-04   1.2601091e-04  -2.5329779e-04  -2.2597008e-04  -9.2524832e-05  -1.2193277e-05   2.5682141e-04  -2.5695853e-05  -1.3149981e-04  -1.6985134e-05   0.0000000e+00   4.9801052e-04   1.3259033e-04   2.8537191e-05   6.1710773e-05   8.7826877e-05   1.0414746e-04   4.3932442e-05   0.0000000e+00   3.2739505e-04   1.3812946e-04   2.1969617e-04   1.4544908e-04  -4.4871745e-05  -1.1894347e-04   2.2463931e-04  -1.0603123e-04   9.4160716e-05   1.2071321e-04  -1.2053539e-04   2.4337186e-05   3.4645898e-05   2.8092045e-05   1.7811874e-04  -5.2755883e-05  -2.8665888e-04  -3.8993004e-05  -5.6113786e-05   1.1284130e-04   2.5302960e-04   9.1188316e-05  -2.3961681e-06  -3.9453960e-04  -2.2974819e-04  -2.1650508e-04  -2.7289834e-04  -7.1646709e-05  -3.5984708e-04   0.0000000e+00  -4.2344972e-04  -4.0498596e-05   8.9438750e-05   3.0165702e-04  -3.8124484e-04   2.3285921e-04   2.1242820e-04   0.0000000e+00   1.6302045e-04   4.4342688e-04   1.0222058e-04  -4.0617625e-04  -3.5856736e-04   5.7963522e-05  -4.0534380e-04  -2.0142709e-04  -4.5804773e-05  -2.9053025e-04  -4.0537380e-04  -4.3687426e-04  -4.0621375e-04  -6.6252533e-04  -1.1459221e-04  -1.2777965e-03  -1.6120654e-04  -1.4279923e-04  -5.4159664e-04  -5.8223182e-04  -3.8898660e-04  -7.9098405e-04  -1.5961189e-03
  -7.3571459e-05  -3.6436679e-05  -3.6280959e-05  -6.7547306e-06  -2.1797703e-05  -3.0206676e-05   0.0000000e+00   1.2769256e-04   1.8977652e-05  -7.7231966e-05  -8.8110944e-05  -6.1335851e-05  -3.3596210e-05   7.8166789e-06   0.0000000e+00  -8.7258608e-05  -6.4986285e-05  -8.1199160e-05  -9.5541964e-05  -6.1800555e-05  -4.1709019e-05  -3.2623044e-05  -2.4422765e-05  -1.0832228e-05  -8.9493228e-06  -5.0091624e-05  -3.1577140e-05  -3.6037672e-05  -7.3921105e-05  -2.1470406e-05  -1.1594406e-04  -3.6525839e-05  -2.8423364e-05  -2.6984078e-05  -4.6502911e-05  -1.3160574e-04  -1.1067217e-04  -4.7937497e-05  -3.9652542e-05   4.4814927e-05  -2.7308679e-04   2.5110798e-04  -2.4851663e-04  -1.0122323e-04   0.0000000e+00   3.5202548e-04  -2.1857769e-04  -1.8146566e-04  -1.3541813e-04  -1.5333063e-04  -1.7172270e-04   8.1270024e-05   0.0000000e+00   3.3285655e-04  -3.2039177e-05  -9.2060644e-05   7.4698598e-05   1.2534581e-05   1.8951277e-05  -1.9371775e-04  -9.1506460e-07   5.4308682e-05  -3.6165951e-05   8.5182793e-05   2.3416584e-04   1.4646232e-04   1.2798422e-04   5.0788717e-04   5.4392975e-05   1.1098681e-04   2.0137785e-04   4.4334265e-04   3.3061039e-04   3.2989429e-04   6.0162878e-04   1.8688116e-04  -5.0672554e-04  -3.8268511e-04  -2.6140637e-04  -2.2495173e-04  -2.6557506e-04  -1.4853045e-04   0.0000000e+00   4.1053485e-05  -2.2556300e-04  -3.3687240e-04  -7.6955065e-04  -6.8302819e-04  -5.3822402e-05  -1.0747577e-04   0.0000000e+00  -2.5795498e-04  -3.8026186e-04  -7.3489982e-04  -9.0989408e-04  -6.9754670e-04  -8.2043450e-04  -3.1122339e-04  -3.7267869e-04  -5.3867661e-04  -2.4912710e-04  -7.4705625e-04  -8.7926275e-04  -4.4795261e-04  -3.1427883e-04   2.9994313e-04  -2.8698968e-04  -1.1195249e-03  -9.9009761e-04  -8.5410032e-04  -3.2394234e-04   1.8945083e-04  -2.8598582e-04  -4.3708273e-04   1.9639135e-04   9.8564877e-05   1.0449486e-04   1.8071852e-04   4.3212385e-05   5.0871593e-05   0.0000000e+00  -2.3499469e-04  -1.0818761e-04   9.6738655e-05   3.1781802e-05   2.4475993e-06  -1.2021146e-04  -9.4945408e-05   0.0000000e+00  -2.3409309e-04  -7.7557154e-06   9.8160403e-05   8.6942280e-05   8.0427971e-05   1.4114501e-05   1.7014743e-04   3.2511285e-05   1.4068967e-04   1.1816027e-04   3.3589314e-05   3.8621722e-05   8.3276627e-05  -6.3260776e-05  -1.3440301e-04  -2.1400149e-04   6.4031843e-06   1.6656090e-05  -1.5882095e-06  -3.5557759e-05  -2.1455914e-04  -1.7663257e-04  -2.8450903e-05   3.6061165e-05   4.3249712e-05  -6.4599022e-05   2.3936195e-05   4.8641864e-07  -1.3178780e-05   0.0000000e+00  -1.5866344e-04  -9.9734030e-05  -4.4206243e-05  -3.4221366e-05  -2.2953875e-05  -9.2856187e-05  -1.3246353e-04   0.0000000e+00  -6.9101807e-05   2.8703197e-06  -1.4517381e-05  -8.1223621e-05  -2.7788559e-05  -4.1045183e-05  -2.8004776e-05  -5.6908420e-05  -1.7488477e-05  -7.7474237e-05  -7.4046424e-05  -3.5136853e-05  -6.4111717e-05  -1.2776500e-04  -1.5403600e-04  -1.9564732e-04  -7.1557934e-05  -1.2368533e-05  -5.3129061e-05  -1.4259500e-04  -2.0413022e-04  -1.5894953e-04  -3.0580072e-05  -2.8920834e-04  -1.4025405e-04   6.3554935e-05  -1.4874889e-04  -5.6097834e-06  -2.6991605e-05   0.0000000e+00   2.8934967e-04   1.8652392e-04   3.0420113e-05   2.3321272e-05   6.9764561e-06   1.2122396e-04   1.2220304e-04   0.0000000e+00   2.7827900e-04   6.4953456e-05  -8.1302745e-05  -1.3392873e-04  -5.9627485e-05  -2.8522662e-05  -1.6792112e-04  -5.9217602e-05  -1.3678081e-04  -6.5208053e-05  -6.7354785e-05  -7.3420942e-05  -6.0288882e-05  -2.0828695e-07   2.8562030e-05   1.1065308e-04  -6.0053132e-05  -1.6825611e-05  -3.3939550e-05   1.8188354e-05   3.3173422e-05   1.7133448e-06   2.4265501e-05  -3.4041712e-05   6.3745190e-05  -2.9485367e-04   1.9094334e-04  -1.0843231e-04  -2.3116329e-04   0.0000000e+00  -2.7687387e-04  -1.0209552e-04  -1.6291503e-04  -1.4449940e-04  -2.7027168e-04  -1.9480823e-04  -2.2148976e-04   0.0000000e+00  -1.4259073e-04   7.1115289e-05   1.4859219e-05  -1.6573413e-04  -2.6904452e-04  -1.0174530e-04   1.4759237e-05  -1.2151142e-04  -1.6705094e-04  -7.1172010e-05  -2.4257116e-04  -2.6918047e-04  -2.2601548e-04   8.8360763e-05  -5.9058535e-05  -4.7393654e-04  -2.0062505e-04  -4.7598882e-05  -2.0733009e-04  -2.2016650e-04   7.5808072e-04   1.3401440e-04  -2.6710837e-04   1.4448964e-04   1.3421772e-04   1.2438916e-04   1.3628476e-04  -7.6305170e-05  -2.6794928e-05   0.0000000e+00   1.4240242e-04  -1.6185040e-04   5.1301744e-05  -7.0902389e-05   1.1073254e-04  -7.9178823e-05  -1.0968717e-04   0.0000000e+00  -2.5227291e-05  -2.4918459e-04  -3.5102631e-05   1.2862714e-04   1.3366535e-04  -1.3760272e-04  -1.1707659e-04  -9.1663323e-05  -1.1249109e-04  -3.4284046e-05  -1.3953578e-04  -5.1675586e-05   3.3394751e-05   7.4762860e-05   7.8133552e-05   1.9990203e-05  -1.1443733e-04  -3.7272019e-05   9.2716482e-05   9.7330361e-05  -2.7122630e-04   5.3278355e-05  -1.1292143e-04  -5.7418999e-05  -1.0656144e-04  -2.6749470e-04  -2.5250258e-04   2.1213756e-05  -1.5841796e-06   0.0000000e+00  -1.9325002e-04  -7.4547837e-05  -8.1458683e-05  -3.8816168e-05  -1.1544927e-04  -8.5345489e-05  -6.5602300e-05   0.0000000e+00  -7.4928961e-05  -5.9670019e-05  -6.8132743e-05  -1.1329446e-04  -3.6232333e-05  -6.4855228e-05  -4.9397474e-05  -4.9078169e-05  -7.9906675e-05  -1.7054745e-04  -1.4976317e-04  -1.9554336e-04  -1.4440428e-04  -2.1488536e-04   2.5632046e-05  -2.2548323e-04  -1.7103498e-04  -6.3478919e-05  -2.5877220e-04  -1.4547288e-04   1.4191063e-04  -2.5835130e-04  -2.2195832e-04  -1.0698846e-04  -2.4335511e-05   2.4302746e-04  -1.2057369e-05  -1.4568762e-04  -3.1354274e-05   0.0000000e+00   4.6394905e-04   1.1921289e-04   7.2521501e-06   4.7319001e-05   6.5692097e-05   8.9636918e-05   3.3273033e-05   0.0000000e+00   3.2298059e-04   1.2540199e-04   1.9860730e-04   1.3463326e-04  -6.0716045e-05  -1.3331739e-04   2.0023313e-04  -1.1298582e-04   7.7577704e-05   1.0400740e-04  -1.4215304e-04   1.5745648e-05   2.5243644e-05   1.6416607e-05   1.6788960e-04  -6.0327594e-05  -3.0126773e-04  -5.4698471e-05  -6.4073072e-05   1.0775913e-04   2.4519786e-04   9.0624574e-05  -1.8350451e-05  -4.0354663e-04  -2.3345030e-04  -2.1961857e-04  -3.0069447e-04  -4.5062594e-05  -3.5038752e-04   0.0000000e+00  -4.1408261e-04  -3.3253727e-05   9.7567214e-05   3.3511163e-04  -3.8670474e-04   2.7459145e-04   2.3586734e-04   0.0000000e+00   1.9318359e-04   4.7909702e-04   1.3188898e-04  -4.3229627e-04  -3.6462705e-04   7.1440749e-05  -3.9686258e-04  -1.9814758e-04  -1.9745145e-05  -2.9225527e-04  -3.9536836e-04  -4.5982177e-04  -4.0921132e-04  -6.7845075e-04  -1.0363516e-04  -1.3506900e-03  -1.4961210e-04  -1.5177297e-04  -5.8069871e-04  -5.9234465e-04  -3.8342536e-04  -8.4316451e-04  -1.6511207e-03
  -7.5567690e-05  -3.6197970e-05  -4.2828943e-05  -7.1289746e-06  -2.6766181e-05  -3.5051775e-05   0.0000000e+00   1.1347395e-04   1.5840614e-05  -7.7862359e-05  -8.7924938e-05  -6.5638506e-05  -3.5636171e-05   6.9816114e-06   0.0000000e+00  -8.0897439e-05  -6.3090700e-05  -8.5987236e-05  -1.0214059e-04  -6.5936891e-05  -4.5912152e-05  -3.7805485e-05  -2.8226234e-05  -1.2087244e-05  -1.1662453e-05  -5.4960711e-05  -3.2824915e-05  -3.6944524e-05  -7.4373983e-05  -3.1794282e-05  -1.1732157e-04  -4.3515831e-05  -3.3819351e-05  -2.6460004e-05  -4.8072230e-05  -1.3669047e-04  -1.0824042e-04  -4.3788567e-05  -3.2516125e-05   4.9635058e-05  -2.5907202e-04   2.1355969e-04  -2.2840271e-04  -6.7663927e-05   0.0000000e+00   4.1884511e-04  -1.6206401e-04  -1.6968470e-04  -1.2243018e-04  -1.1261242e-04  -1.6238898e-04   1.1099068e-04   0.0000000e+00   3.5363474e-04  -1.3677608e-05  -6.1082307e-05   1.3505795e-04   5.8240300e-05   4.4165061e-05  -1.7223493e-04   2.2807147e-05   7.2215630e-05  -2.7810441e-05   1.2477301e-04   2.6447895e-04   1.6062255e-04   1.6772602e-04   5.1570602e-04   8.8542206e-05   1.5248481e-04   2.3179252e-04   4.6048675e-04   3.5142698e-04   4.1102317e-04   6.4871737e-04   1.9617519e-04  -5.1336328e-04  -3.8168833e-04  -2.5251512e-04  -2.6279079e-04  -2.4862511e-04  -1.2971418e-04   0.0000000e+00   9.3167677e-05  -1.8593592e-04  -3.1521402e-04  -7.6682234e-04  -6.7051145e-04  -2.9506152e-05  -1.0306270e-04   0.0000000e+00  -2.3471161e-04  -3.7483918e-04  -7.2954931e-04  -8.9684235e-04  -6.8139227e-04  -8.1513440e-04  -2.8334533e-04  -3.5642370e-04  -5.2788799e-04  -2.3788924e-04  -7.2319722e-04  -8.7862308e-04  -4.3347147e-04  -2.8992559e-04   3.1678489e-04  -2.5019445e-04  -1.1134050e-03  -9.8166868e-04  -8.6648288e-04  -3.0026743e-04   2.3553117e-04  -2.7867092e-04  -4.1229349e-04   2.1132572e-04   1.0223169e-04   1.0248840e-04   1.8394494e-04   4.2575869e-05   5.3364091e-05   0.0000000e+00  -2.4114957e-04  -1.0611252e-04   1.0116154e-04   2.8106199e-05  -1.9240871e-06  -1.2083981e-04  -1.0063309e-04   0.0000000e+00  -2.4145022e-04  -1.2995343e-05   9.8809188e-05   9.1114607e-05   8.3643785e-05   1.0898515e-05   1.8349539e-04   3.6739396e-05   1.4378534e-04   1.1822418e-04   3.4900098e-05   3.9189190e-05   8.2533274e-05  -6.1293212e-05  -1.4802207e-04  -2.2327720e-04   2.2391191e-06   1.6399412e-05  -7.7613286e-06  -3.8716590e-05  -2.1220278e-04  -1.8694065e-04  -3.0875527e-05   5.8362784e-05   3.8844631e-05  -6.9484769e-05   2.6789208e-05  -4.4177273e-06  -1.8576516e-05   0.0000000e+00  -1.7131847e-04  -1.1361682e-04  -4.2510708e-05  -4.2795091e-05  -3.5455306e-05  -9.5757579e-05  -1.4113446e-04   0.0000000e+00  -8.5039323e-05   9.4375528e-07  -9.4518285e-06  -7.6687974e-05  -4.0264942e-05  -5.2570440e-05  -1.5835739e-06  -6.3938181e-05  -8.6753485e-06  -7.4178564e-05  -8.6392884e-05  -4.9783338e-05  -7.0231541e-05  -1.4343710e-04  -1.5946749e-04  -2.1105958e-04  -8.4769004e-05  -2.2230345e-05  -6.9833218e-05  -1.5386717e-04  -2.1528321e-04  -1.7777824e-04  -4.1188908e-05  -2.7795444e-04  -1.3932588e-04   6.7591459e-05  -1.5662379e-04   3.4877239e-07  -2.1443066e-05   0.0000000e+00   2.9853274e-04   1.9819190e-04   3.5748105e-05   3.0285950e-05   1.1075909e-05   1.2647858e-04   1.3241950e-04   0.0000000e+00   2.9056936e-04   7.3892981e-05  -7.5146177e-05  -1.2440626e-04  -5.9553447e-05  -2.6601584e-05  -1.5606297e-04  -5.5725209e-05  -1.3120309e-04  -6.0304774e-05  -6.2930729e-05  -7.1837262e-05  -5.9923714e-05   2.1366021e-06   2.5830301e-05   1.1927548e-04  -5.3947964e-05  -1.4411022e-05  -3.7701307e-05   1.8477975e-05   4.9897091e-05   1.0086853e-05   2.7172054e-05  -3.9390588e-05   6.9246770e-05  -3.2143434e-04   2.0028631e-04  -1.2321241e-04  -2.5962612e-04   0.0000000e+00  -2.8854123e-04  -9.6511864e-05  -1.7144276e-04  -1.3581876e-04  -2.7862419e-04  -2.0219674e-04  -2.3289523e-04   0.0000000e+00  -1.1951798e-04   9.5043160e-05   1.2875905e-05  -1.9268772e-04  -2.8644805e-04  -1.0915155e-04  -4.5991061e-06  -1.4265794e-04  -1.7994139e-04  -8.9673368e-05  -2.6459316e-04  -2.8507897e-04  -2.4051104e-04   9.2119869e-05   4.0779543e-05  -4.7314110e-04  -2.2922396e-04  -6.2474985e-05  -2.1704475e-04  -2.0392297e-04   8.6359441e-04   1.9054871e-04  -2.6778048e-04   1.5138033e-04   1.4672042e-04   1.3231267e-04   1.4916211e-04  -7.1125640e-05  -2.2792388e-05   0.0000000e+00   9.3974006e-05  -1.7553824e-04   6.6130522e-05  -4.4979811e-05   1.3674503e-04  -7.1268751e-05  -1.2339688e-04   0.0000000e+00  -8.1803567e-06  -2.2995915e-04  -1.3865124e-05   1.4283541e-04   1.5944762e-04  -1.1243587e-04  -1.1762410e-04  -8.4067112e-05  -9.6673222e-05  -2.2043227e-05  -1.1879690e-04  -2.4684928e-05   5.0829625e-05   8.1637597e-05   8.7049222e-05   2.9120158e-05  -8.9860743e-05  -1.6553483e-05   1.1228583e-04   1.0832452e-04  -2.7806232e-04   7.0543492e-05  -1.1897287e-04  -6.5670124e-05  -1.0995508e-04  -2.9089449e-04  -2.2219442e-04   9.5834196e-06  -5.0777799e-06   0.0000000e+00  -1.8966455e-04  -7.9712901e-05  -9.2699972e-05  -4.3895271e-05  -1.3469613e-04  -9.3977660e-05  -6.9706995e-05   0.0000000e+00  -6.8344170e-05  -6.0419053e-05  -6.5658874e-05  -1.2932788e-04  -4.4868283e-05  -6.7133910e-05  -6.1863367e-05  -5.2473523e-05  -9.2298079e-05  -1.9594126e-04  -1.5847638e-04  -2.0195218e-04  -1.5230180e-04  -2.2326201e-04   3.8923548e-05  -2.2082562e-04  -1.7817810e-04  -6.7595622e-05  -2.7137757e-04  -1.5065327e-04   1.6174887e-04  -2.6327988e-04  -2.1636132e-04  -1.2321417e-04  -3.8768144e-05   2.2703471e-04   1.0137434e-06  -1.6094690e-04  -4.7445815e-05   0.0000000e+00   4.2809640e-04   1.0545804e-04  -1.6247811e-05   2.6840324e-05   3.9501938e-05   7.1313978e-05   2.1308856e-05   0.0000000e+00   3.1600545e-04   1.0862107e-04   1.7377446e-04   1.2113435e-04  -7.7817048e-05  -1.5066939e-04   1.7323731e-04  -1.2248449e-04   5.7566747e-05   8.3723511e-05  -1.6597555e-04   2.8016754e-06   1.2731383e-05   3.4467763e-06   1.5981999e-04  -6.3577153e-05  -3.1817496e-04  -7.1837724e-05  -7.5625489e-05   1.0089406e-04   2.3874857e-04   8.9678729e-05  -3.5618533e-05  -4.0660986e-04  -2.3370045e-04  -2.2101752e-04  -3.2397190e-04  -1.7788477e-05  -3.3410203e-04   0.0000000e+00  -4.0326573e-04  -2.8542892e-05   1.0201716e-04   3.5975430e-04  -3.8268887e-04   3.0876684e-04   2.5346671e-04   0.0000000e+00   2.1799777e-04   5.0579133e-04   1.5862905e-04  -4.4895302e-04  -3.6470083e-04   7.9664087e-05  -3.7921510e-04  -1.9270346e-04   7.9495365e-06  -2.8913913e-04  -3.8039539e-04  -4.7738270e-04  -4.0649581e-04  -6.8651292e-04  -9.3490760e-05  -1.4128074e-03  -1.3918303e-04  -1.6053577e-04  -6.1512472e-04  -5.9723510e-04  -3.7386893e-04  -8.8857091e-04  -1.6881757e-03
  -7.6400074e-05  -3.5293229e-05  -4.9135915e-05  -7.1914764e-06  -3.0991673e-05  -3.9156409e-05   0.0000000e+00   9.7847259e-05   1.1255567e-05  -7.7748299e-05  -8.6499091e-05  -6.9018347e-05  -3.6869013e-05   6.6365313e-06   0.0000000e+00  -7.3104411e-05  -6.0658127e-05  -8.9453440e-05  -1.0669006e-04  -6.8705216e-05  -4.9306655e-05  -4.2429956e-05  -3.1380475e-05  -1.2999323e-05  -1.3992684e-05  -5.8592475e-05  -3.3277908e-05  -3.6990866e-05  -7.3865041e-05  -4.1941954e-05  -1.1738734e-04  -4.9732985e-05  -3.8783087e-05  -2.4997425e-05  -4.8474806e-05  -1.4057757e-04  -1.0440613e-04  -3.8847919e-05  -2.6988642e-05   5.2263680e-05  -2.4316878e-04   1.7100875e-04  -2.0652419e-04  -3.3054868e-05   0.0000000e+00   4.9116206e-04  -9.6378228e-05  -1.5885914e-04  -1.1102544e-04  -7.1513005e-05  -1.5123149e-04   1.4391573e-04   0.0000000e+00   3.7593071e-04   6.4534757e-06  -3.1200515e-05   1.9384456e-04   1.0432788e-04   7.0176760e-05  -1.4687110e-04   4.7500239e-05   9.0044064e-05  -2.0851686e-05   1.6448098e-04   2.9170270e-04   1.7115613e-04   2.1047579e-04   5.2321319e-04   1.3108173e-04   1.9412506e-04   2.5992724e-04   4.7412965e-04   3.7156311e-04   5.0469665e-04   6.9962431e-04   2.0472224e-04  -5.1540684e-04  -3.7773761e-04  -2.3903603e-04  -2.9201604e-04  -2.2625893e-04  -1.0370397e-04   0.0000000e+00   1.4653601e-04  -1.4386558e-04  -2.8727138e-04  -7.5453179e-04  -6.4814225e-04  -8.8701684e-07  -9.2339333e-05   0.0000000e+00  -2.0931014e-04  -3.6565156e-04  -7.1391112e-04  -8.7578812e-04  -6.5606216e-04  -8.0386133e-04  -2.5107119e-04  -3.3614666e-04  -5.1240161e-04  -2.2495350e-04  -6.9198371e-04  -8.7204602e-04  -4.1474383e-04  -2.6565630e-04   3.3293788e-04  -2.1737670e-04  -1.0979128e-03  -9.6551105e-04  -8.7398226e-04  -2.7585374e-04   2.8074792e-04  -2.7196866e-04  -3.8781759e-04   2.2785322e-04   1.0662244e-04   1.0104379e-04   1.8619662e-04   4.3574689e-05   5.6695875e-05   0.0000000e+00  -2.4659868e-04  -1.0234865e-04   1.0504697e-04   2.5183130e-05  -5.1524945e-06  -1.2029858e-04  -1.0544145e-04   0.0000000e+00  -2.4779978e-04  -1.7245321e-05   9.9443467e-05   9.4734377e-05   8.6187494e-05   7.8576783e-06   1.9660872e-04   4.0830680e-05   1.4827299e-04   1.1883311e-04   3.5522689e-05   3.9670474e-05   8.1058365e-05  -5.9093137e-05  -1.5965630e-04  -2.3262258e-04  -1.6833625e-06   1.5740368e-05  -1.4540574e-05  -4.3031478e-05  -2.0766810e-04  -1.9659766e-04  -3.4357552e-05   8.5419084e-05   3.6566651e-05  -7.3395024e-05   3.1627233e-05  -7.9624306e-06  -2.3620396e-05   0.0000000e+00  -1.8591135e-04  -1.2838824e-04  -4.0521394e-05  -5.0993376e-05  -4.7721942e-05  -9.7608800e-05  -1.4951372e-04   0.0000000e+00  -1.0251280e-04  -1.1736032e-06  -4.6529464e-06  -7.0671652e-05  -5.3193865e-05  -6.3616421e-05   2.6953871e-05  -7.0144639e-05   4.4477470e-06  -6.9188659e-05  -9.8475664e-05  -6.4552172e-05  -7.5170588e-05  -1.5795941e-04  -1.6443389e-04  -2.2643438e-04  -9.7486878e-05  -3.2317035e-05  -8.7204084e-05  -1.6558263e-04  -2.2623309e-04  -1.9678562e-04  -5.1886583e-05  -2.6262952e-04  -1.3693039e-04   7.1011878e-05  -1.6266621e-04   7.2874652e-06  -1.4746184e-05   0.0000000e+00   3.0649421e-04   2.0792692e-04   4.0313041e-05   3.6063632e-05   1.4979620e-05   1.2964328e-04   1.4219114e-04   0.0000000e+00   2.9926489e-04   8.2029345e-05  -6.9119737e-05  -1.1351286e-04  -5.9696095e-05  -2.5671571e-05  -1.4141237e-04  -5.2446589e-05  -1.2303623e-04  -5.4278355e-05  -5.9507096e-05  -7.0463023e-05  -5.9879563e-05   3.5586156e-06   2.4249392e-05   1.2670793e-04  -4.8228380e-05  -1.2407740e-05  -4.2608132e-05   1.7437096e-05   6.8150104e-05   1.8258782e-05   2.8158383e-05  -4.4208726e-05   7.4291372e-05  -3.4847187e-04   2.0843400e-04  -1.3963524e-04  -2.8791729e-04   0.0000000e+00  -2.9526540e-04  -9.2713698e-05  -1.8050331e-04  -1.2717467e-04  -2.8853943e-04  -2.1052864e-04  -2.4273605e-04   0.0000000e+00  -1.0010231e-04   1.1768050e-04   1.1236334e-05  -2.1763759e-04  -3.0319780e-04  -1.1634995e-04  -2.3227330e-05  -1.6279407e-04  -1.9153352e-04  -1.0561399e-04  -2.8326157e-04  -2.9907686e-04  -2.5091460e-04   9.3979824e-05   1.4938707e-04  -4.7275390e-04  -2.5586110e-04  -7.5901025e-05  -2.2356490e-04  -1.8272806e-04   9.5706390e-04   2.4286344e-04  -2.6588583e-04   1.5545238e-04   1.5663890e-04   1.3996917e-04   1.6246711e-04  -6.4794995e-05  -1.7082753e-05   0.0000000e+00   4.2416489e-05  -1.8216522e-04   8.2731248e-05  -1.6528550e-05   1.6176253e-04  -6.1638649e-05  -1.3470631e-04   0.0000000e+00   1.1708260e-05  -2.0386603e-04   9.4647272e-06   1.5715495e-04   1.8433706e-04  -8.4178091e-05  -1.1597450e-04  -7.4706765e-05  -7.8184067e-05  -7.8231051e-06  -9.5174615e-05   3.2586314e-06   6.8370941e-05   8.8857482e-05   9.6624756e-05   3.9107676e-05  -6.2727259e-05   5.5622781e-06   1.2907573e-04   1.1750645e-04  -2.7496673e-04   8.7329931e-05  -1.2371689e-04  -7.4126860e-05  -1.1388682e-04  -3.0978623e-04  -1.9202869e-04  -3.7152477e-07  -7.0061949e-06   0.0000000e+00  -1.8362799e-04  -8.0539637e-05  -1.0149687e-04  -4.9244727e-05  -1.5133371e-04  -1.0299222e-04  -7.6566831e-05   0.0000000e+00  -5.8053819e-05  -6.0778545e-05  -6.1603979e-05  -1.4303233e-04  -5.2219462e-05  -6.8084419e-05  -7.2933976e-05  -5.5107037e-05  -1.0317886e-04  -2.1954990e-04  -1.6392846e-04  -2.0630425e-04  -1.5864196e-04  -2.3088226e-04   5.4362674e-05  -2.1632525e-04  -1.8283918e-04  -6.9440424e-05  -2.8450692e-04  -1.5553666e-04   1.8486450e-04  -2.6796525e-04  -2.0954389e-04  -1.4133629e-04  -5.5388003e-05   2.0943906e-04   1.2574505e-05  -1.7742596e-04  -6.5320292e-05   0.0000000e+00   3.9226257e-04   9.1853809e-05  -4.1365042e-05   5.7049328e-07   9.6362710e-06   4.9660800e-05   8.3426409e-06   0.0000000e+00   3.0694119e-04   8.8170816e-05   1.4573193e-04   1.0512561e-04  -9.6208544e-05  -1.7083627e-04   1.4434952e-04  -1.3454439e-04   3.4315915e-05   6.0434902e-05  -1.9173660e-04  -1.4596391e-05  -2.7359638e-06  -1.0523644e-05   1.5456127e-04  -6.2575748e-05  -3.3746835e-04  -9.0187420e-05  -9.0572808e-05   9.2423405e-05   2.3444950e-04   8.8618360e-05  -5.4018454e-05  -4.0474330e-04  -2.3090152e-04  -2.2095339e-04  -3.4289588e-04   8.3665749e-06  -3.1236552e-04   0.0000000e+00  -3.9193886e-04  -2.6284758e-05   1.0269358e-04   3.7499563e-04  -3.6988562e-04   3.3455951e-04   2.6491315e-04   0.0000000e+00   2.3713376e-04   5.2319963e-04   1.8144820e-04  -4.5635600e-04  -3.5938012e-04   8.2057237e-05  -3.5398002e-04  -1.8583169e-04   3.5674537e-05  -2.8204572e-04  -3.6183474e-04  -4.8956648e-04  -3.9896434e-04  -6.8765038e-04  -8.4663903e-05  -1.4642692e-03  -1.3068698e-04  -1.6913077e-04  -6.4458444e-04  -5.9775826e-04  -3.6132390e-04  -9.2703032e-04  -1.7085518e-03
  -7.6022492e-05  -3.3777580e-05  -5.4892602e-05  -7.0029473e-06  -3.4268877e-05  -4.2336192e-05   0.0000000e+00   8.1538294e-05   5.3676846e-06  -7.6843940e-05  -8.3929120e-05  -7.1266409e-05  -3.7188843e-05   6.7301965e-06   0.0000000e+00  -6.4156297e-05  -5.7834126e-05  -9.1429092e-05  -1.0898439e-04  -6.9954291e-05  -5.1815054e-05  -4.6282248e-05  -3.3777885e-05  -1.3507670e-05  -1.5791737e-05  -6.0859906e-05  -3.2882114e-05  -3.6148695e-05  -7.2417888e-05  -5.1629792e-05  -1.1623611e-04  -5.5022935e-05  -4.3149446e-05  -2.2648875e-05  -4.7683577e-05  -1.4330220e-04  -9.9379294e-05  -3.3312798e-05  -2.3358960e-05   5.2673150e-05  -2.2609769e-04   1.2528914e-04  -1.8409670e-04   1.2281164e-06   0.0000000e+00   5.6708628e-04  -2.4532775e-05  -1.4976201e-04  -1.0173199e-04  -3.1412582e-05  -1.3883177e-04   1.7902291e-04   0.0000000e+00   3.9953758e-04   2.7631585e-05  -3.6208895e-06   2.4902900e-04   1.4933311e-04   9.6154611e-05  -1.1878980e-04   7.2329126e-05   1.0720898e-04  -1.5654334e-05   2.0299261e-04   3.1517855e-04   1.7798224e-04   2.5502486e-04   5.3153061e-04   1.8096702e-04   2.3476096e-04   2.8517013e-04   4.8455497e-04   3.9106023e-04   6.0827874e-04   7.5320486e-04   2.1219417e-04  -5.1266162e-04  -3.7105566e-04  -2.2184522e-04  -3.1122224e-04  -1.9987311e-04  -7.1901401e-05   0.0000000e+00   1.9933897e-04  -1.0192073e-04  -2.5443414e-04  -7.3361883e-04  -6.1672117e-04   2.9686091e-05  -7.5959115e-05   0.0000000e+00  -1.8350755e-04  -3.5414216e-04  -6.8862350e-04  -8.4677777e-04  -6.2264339e-04  -7.8832273e-04  -2.1606932e-04  -3.1342409e-04  -4.9259285e-04  -2.1119576e-04  -6.5557104e-04  -8.6016837e-04  -3.9267735e-04  -2.4224880e-04   3.4813328e-04  -1.9078044e-04  -1.0743408e-03  -9.4266972e-04  -8.7596050e-04  -2.5167826e-04   3.2336233e-04  -2.6624172e-04  -3.6487967e-04   2.4473972e-04   1.1149136e-04   1.0031846e-04   1.8775515e-04   4.5933778e-05   6.0519820e-05   0.0000000e+00  -2.5144952e-04  -9.7453323e-05   1.0818810e-04   2.3303003e-05  -7.2518562e-06  -1.1874199e-04  -1.0934459e-04   0.0000000e+00  -2.5310422e-04  -2.0350631e-05   1.0010413e-04   9.7201301e-05   8.7959044e-05   5.2339739e-06   2.0843363e-04   4.4529697e-05   1.5368397e-04   1.1977592e-04   3.5388465e-05   4.0053263e-05   7.8962056e-05  -5.7084908e-05  -1.6894338e-04  -2.4212733e-04  -5.1703751e-06   1.4703753e-05  -2.1364397e-05  -4.8306558e-05  -2.0209831e-04  -2.0549573e-04  -3.8741249e-05   1.1484380e-04   3.6250126e-05  -7.6261037e-05   3.8144493e-05  -9.9490541e-06  -2.8240501e-05   0.0000000e+00  -2.0240273e-04  -1.4334271e-04  -3.8589559e-05  -5.8257668e-05  -5.9276042e-05  -9.8391175e-05  -1.5732607e-04   0.0000000e+00  -1.2042012e-04  -3.3083461e-06  -8.1741107e-07  -6.4294458e-05  -6.6087584e-05  -7.3394627e-05   5.4947957e-05  -7.5229292e-05   2.0742358e-05  -6.3311856e-05  -1.0977972e-04  -7.8874685e-05  -7.8842520e-05  -1.7060867e-04  -1.6916328e-04  -2.4126495e-04  -1.0904050e-04  -4.2191981e-05  -1.0425278e-04  -1.7737380e-04  -2.3685748e-04  -2.1522218e-04  -6.2007744e-05  -2.4369682e-04  -1.3312930e-04   7.3719053e-05  -1.6675190e-04   1.4895585e-05  -7.3026039e-06   0.0000000e+00   3.1318406e-04   2.1532982e-04   4.3899617e-05   4.0401423e-05   1.8438627e-05   1.3068230e-04   1.5144622e-04   0.0000000e+00   3.0432919e-04   8.9095346e-05  -6.3609889e-05  -1.0178067e-04  -6.0204085e-05  -2.5824453e-05  -1.2432479e-04  -4.9670240e-05  -1.1244966e-04  -4.7247778e-05  -5.7406135e-05  -6.9521820e-05  -6.0209082e-05   3.7424428e-06   2.4135136e-05   1.3257717e-04  -4.3220456e-05  -1.0937521e-05  -4.8507440e-05   1.5082209e-05   8.6752256e-05   2.5604578e-05   2.7016000e-05  -4.8160227e-05   7.8514875e-05  -3.7520511e-04   2.1539739e-04  -1.5716731e-04  -3.1510354e-04   0.0000000e+00  -2.9696446e-04  -9.0738990e-05  -1.8998312e-04  -1.1938904e-04  -3.0001083e-04  -2.1968720e-04  -2.5083733e-04   0.0000000e+00  -8.5233618e-05   1.3791334e-04   1.0071952e-05  -2.3935913e-04  -3.1903820e-04  -1.2345362e-04  -4.0410939e-05  -1.8125092e-04  -2.0240999e-04  -1.1898461e-04  -2.9821934e-04  -3.1119326e-04  -2.5757317e-04   9.4802256e-05   2.6203887e-04  -4.7187683e-04  -2.8028219e-04  -8.7684573e-05  -2.2713051e-04  -1.5756251e-04   1.0392789e-03   2.9148192e-04  -2.6071167e-04   1.5687791e-04   1.6383760e-04   1.4720503e-04   1.7568936e-04  -5.7296341e-05  -9.4735810e-06   0.0000000e+00  -9.4936355e-06  -1.8139747e-04   1.0060777e-04   1.3439694e-05   1.8513494e-04  -5.0898653e-05  -1.4326915e-04   0.0000000e+00   3.4023855e-05  -1.7208040e-04   3.4205534e-05   1.7213301e-04   2.0808232e-04  -5.3779896e-05  -1.1198089e-04  -6.3775420e-05  -5.7780042e-05   7.8357967e-06  -6.9386482e-05   3.1241075e-05   8.5415526e-05   9.6754574e-05   1.0675394e-04   5.0167906e-05  -3.3820215e-05   2.8685179e-05   1.4255135e-04   1.2486517e-04  -2.6106166e-04   1.0347415e-04  -1.2701375e-04  -8.2198283e-05  -1.1803268e-04  -3.2413664e-04  -1.6291266e-04  -8.3027811e-06  -7.3093385e-06   0.0000000e+00  -1.7649788e-04  -7.7315218e-05  -1.0756113e-04  -5.4223388e-05  -1.6460521e-04  -1.1256913e-04  -8.6434824e-05   0.0000000e+00  -4.4384663e-05  -6.0494485e-05  -5.6023784e-05  -1.5363596e-04  -5.7932566e-05  -6.7504632e-05  -8.2303101e-05  -5.6893922e-05  -1.1216538e-04  -2.4075784e-04  -1.6592318e-04  -2.0858740e-04  -1.6329499e-04  -2.3773690e-04   7.0908835e-05  -2.1243561e-04  -1.8472384e-04  -6.8893969e-05  -2.9777232e-04  -1.6029485e-04   2.1029085e-04  -2.7228382e-04  -2.0191530e-04  -1.6141631e-04  -7.4010511e-05   1.9084781e-04   2.1882892e-05  -1.9530717e-04  -8.5133758e-05   0.0000000e+00   3.5815507e-04   7.8878826e-05  -6.7522794e-05  -3.0929703e-05  -2.3533990e-05   2.5316473e-05  -5.2561239e-06   0.0000000e+00   2.9636336e-04   6.4615238e-05   1.1506897e-04   8.6823522e-05  -1.1593989e-04  -1.9352524e-04   1.1418997e-04  -1.4906543e-04   8.1274447e-06   3.4838883e-05  -2.1913602e-04  -3.6323535e-05  -2.0895182e-05  -2.5119623e-05   1.5259312e-04  -5.7690146e-05  -3.5913307e-04  -1.0946184e-04  -1.0845994e-04   8.2573519e-05   2.3289653e-04   8.7773592e-05  -7.3321250e-05  -3.9925749e-04  -2.2562246e-04  -2.1976255e-04  -3.5793844e-04   3.1552090e-05  -2.8687485e-04   0.0000000e+00  -3.8088269e-04  -2.6188363e-05   9.9703366e-05   3.8088783e-04  -3.4949270e-04   3.5165692e-04   2.7027792e-04   0.0000000e+00   2.5065429e-04   5.3157973e-04   1.9959631e-04  -4.5516691e-04  -3.4950121e-04   7.8379764e-05  -3.2319414e-04  -1.7832566e-04   6.1786049e-05  -2.7204778e-04  -3.4125795e-04  -4.9663066e-04  -3.8773021e-04  -6.8309136e-04  -7.7537061e-05  -1.5056495e-03  -1.2477189e-04  -1.7764603e-04  -6.6901025e-04  -5.9491126e-04  -3.4688461e-04  -9.5867321e-04  -1.7141763e-03
