   8.4129483e-05   2.3723184e-05   1.3119095e-04   2.2159409e-05   2.4761618e-05  -1.0521515e-07   4.6715797e-05   4.5907530e-05   2.6916008e-05   5.0367758e-05   1.2558184e-05  -2.3421385e-05   0.0000000e+00   4.2230250e-05   2.9775269e-05   4.3470374e-05   1.5725261e-05   1.0042335e-05   7.9230403e-07  -1.6961502e-05   4.3055300e-05   6.4514679e-05   3.4558159e-05   8.4381981e-05   1.7248404e-04   7.7626097e-06   2.8436965e-05   3.2886466e-05   2.8197386e-05   3.4215610e-05   1.1461589e-05   2.3153063e-05   3.3941670e-05   2.9004216e-05   3.9131538e-05   2.7731546e-05   6.9363958e-05   6.2711815e-05   1.3578014e-04   2.7411798e-05  -4.9293991e-06  -1.2533441e-04   6.7483695e-06   4.6203085e-05  -3.5248738e-04  -2.1871939e-04  -5.9006923e-06  -3.6659985e-05  -7.6813384e-05   2.0525329e-06   0.0000000e+00  -3.1324190e-04  -1.0569408e-04  -6.4690042e-05  -3.8098606e-05  -1.8733201e-05  -3.5510110e-05   9.4117350e-06   9.1046684e-05   2.9441415e-06   4.1334184e-05   2.3899775e-05   8.6198295e-05   1.1587806e-04   1.3172700e-04   1.3112776e-04   1.5934348e-05  -7.0731562e-05  -2.4625873e-04   3.1437984e-06  -5.7123005e-05   1.0218521e-04   2.8348482e-05  -1.3365649e-04  -3.8342834e-05   7.0191723e-05   1.8917786e-05  -6.3832322e-05  -1.5555512e-04  -1.1017370e-04  -1.2954476e-04  -2.2765535e-04   2.6834479e-05  -1.1127838e-04  -1.3247280e-04  -2.8861778e-04  -3.5004370e-04  -3.8441114e-04   0.0000000e+00  -4.5535451e-05  -1.4651246e-04  -1.7624349e-04  -3.0083547e-04  -2.3709875e-04  -3.2078908e-04  -5.4399088e-04  -2.9832553e-04  -1.1859624e-04  -1.9357838e-04  -9.9802630e-05  -1.1776627e-04  -3.8916920e-04  -2.4835466e-04  -1.9687764e-04  -5.2435406e-05  -4.2381995e-05   2.4957122e-05  -2.6200038e-04  -2.0342771e-04  -5.9816069e-05  -5.9931602e-05  -6.7188532e-05   6.8389307e-06  -3.3531420e-06   8.3816885e-05  -3.4490089e-05  -1.1125719e-04  -6.0931308e-05  -1.3606527e-05  -5.5165331e-05   6.2476153e-05   4.8026248e-05  -1.2368590e-04  -1.7603886e-04  -8.4408355e-05  -9.0483635e-05   0.0000000e+00   4.5246167e-05  -5.3766742e-05  -9.8544372e-05  -6.6117284e-05  -7.3615565e-05  -9.4229567e-05  -2.4231243e-04   1.0342532e-05   4.3182522e-05  -4.2562394e-05   3.8644010e-05   3.9987277e-05  -1.1515480e-04  -2.0559578e-04  -1.1593223e-04  -1.0053740e-04   5.3385746e-05  -3.7125069e-05  -4.1925376e-05  -1.3288252e-05  -1.1700909e-04  -6.9083455e-05  -2.7286551e-05   2.3560241e-05  -4.5872912e-05   7.5225014e-05   9.1834114e-06  -1.2737101e-04   7.5926022e-05   2.4736684e-05   1.5100075e-05  -1.3040669e-04  -1.4122517e-04  -2.9962240e-05  -7.3400643e-05   5.0655323e-05   1.6401122e-05   0.0000000e+00   9.0840555e-06  -6.8881099e-05  -7.0199319e-05  -6.6173842e-06   6.8258465e-05   3.4911918e-05  -1.2512960e-04   4.7062533e-05  -1.3274837e-05   5.6758996e-06  -8.5926758e-06  -2.3521539e-05  -4.5496304e-06  -1.9798236e-05   2.3070207e-05  -4.0804375e-05  -5.2531299e-05  -5.1207945e-05  -1.7951030e-06   4.4014739e-05  -2.1801827e-05  -2.0186233e-05  -2.5378412e-05   3.8021381e-05   3.5092147e-04   7.0712179e-05  -9.9786463e-06  -8.9040089e-05   1.5267416e-05   9.1807433e-05   1.1158333e-05  -4.8595590e-05  -9.7477164e-05  -4.6677382e-05  -9.7283737e-05  -6.3605851e-06  -2.4003769e-05   0.0000000e+00   1.2068967e-04  -3.3939828e-05  -5.0294167e-05  -5.6123763e-05   6.7694329e-06   4.0478356e-06  -1.7912319e-04   8.0126230e-05   4.2625533e-05   1.6499294e-05   2.9869629e-05   6.2418245e-05  -4.5454523e-05  -1.3430243e-04  -6.0559987e-05  -9.9211252e-06  -4.9922390e-05  -3.8128017e-05   3.1678873e-05   5.5014044e-05  -7.7226006e-05  -1.2178779e-05  -1.5590574e-05   5.3702553e-06   6.3475811e-05  -8.5650264e-06   1.3094113e-05  -3.5189015e-04  -6.6516353e-05  -4.0529652e-05   5.8178969e-05  -1.9251347e-04  -2.5813483e-04  -1.4902325e-04  -2.2071394e-04  -3.9763284e-05   1.2802848e-04   0.0000000e+00  -1.0704494e-04  -2.7335115e-04  -1.6902337e-04  -3.0245573e-05  -1.2565987e-05   2.4064149e-05  -6.0707319e-05   1.6771045e-04   3.5389016e-05   8.7749479e-05   3.1776805e-05  -1.9062381e-05   1.8588503e-04   6.9168098e-05   3.7166740e-05  -5.8310051e-05  -1.2129219e-05  -1.0944981e-04   1.7753666e-04   1.5580315e-04   3.5477510e-05  -2.0559863e-05  -1.9601462e-04  -1.7932370e-04   1.3734035e-05   1.2699009e-04   2.2389943e-06  -2.1248040e-04  -1.7712671e-05  -2.3019363e-05  -5.0044854e-05  -8.2879396e-05  -2.0292130e-04  -1.6148037e-04  -2.5597537e-04  -7.0182022e-05  -4.9081515e-05   0.0000000e+00   7.3444178e-05  -2.1706544e-04  -1.1214639e-04  -7.8518314e-05  -4.5419152e-05  -5.1631551e-05  -4.1517561e-04  -4.2570583e-05  -3.0921245e-05  -8.5051437e-05  -5.8337192e-05  -8.0887383e-05  -2.4204457e-04  -2.8404544e-04  -2.0799807e-04  -1.1159273e-04  -1.1962439e-04  -1.0266164e-04  -9.0699066e-05  -1.5535505e-05  -1.6652179e-04  -8.2994719e-05  -1.3703571e-04  -1.1000930e-04  -9.9936783e-05  -1.1834873e-04  -2.6075432e-05  -1.2844482e-04  -1.4528354e-04  -1.1042314e-04  -5.0024801e-05  -1.0400173e-04  -1.9272790e-04  -1.8523050e-04  -9.6715679e-05  -1.7277006e-05  -2.8674316e-05   0.0000000e+00  -2.4363386e-04  -3.4059944e-05  -1.3268118e-04  -5.3769816e-05  -1.0163048e-04  -8.7727161e-05  -9.9840072e-06  -1.4583951e-04  -6.2963288e-05  -3.7069609e-05  -6.0329933e-05  -1.4884257e-04  -9.8774199e-06  -1.6279509e-04  -1.2409559e-04  -2.0049793e-04   2.5099273e-04   1.4992574e-04  -2.3793104e-05  -2.3454341e-04  -1.1453197e-04  -1.2216044e-04   2.3946952e-04   1.5533724e-04   6.2301698e-05   2.7910743e-04  -5.4570860e-05  -5.9207573e-04  -5.3426049e-04  -1.1782103e-04  -1.3084432e-05  -4.1676864e-05  -2.9364968e-04  -2.4328527e-04  -3.5853457e-04  -6.2191253e-05   6.0155266e-05   0.0000000e+00   4.7776030e-07  -2.8038052e-04  -2.9359114e-04  -2.2110848e-04   7.3359818e-05  -1.0443387e-05  -4.7797850e-04   2.1704477e-04  -4.5585543e-05  -8.0774123e-06  -7.1014593e-05  -7.4416472e-05   3.9688502e-05  -2.4948720e-04  -1.1319453e-04  -6.7669461e-05   4.6985223e-05  -7.0100862e-05   1.2315842e-04   1.5528102e-04  -1.0475100e-04  -8.0053367e-05   1.6261604e-05   4.9011427e-05  -6.1628566e-06  -2.4054027e-05  -9.5825801e-05  -2.3395410e-04   4.1278691e-05   2.7757833e-05  -6.9287194e-05   1.0587417e-04   1.3343509e-04  -1.5442374e-04  -1.7494479e-04  -1.1844074e-04  -1.1044082e-04   0.0000000e+00  -1.0702908e-05   3.6649858e-05  -1.5258523e-04  -7.6713566e-05  -1.3111582e-04  -9.4445484e-05  -7.4589480e-05  -3.7172127e-05  -2.9606344e-06  -7.9535185e-05   3.9654395e-05  -2.0722883e-05  -3.4328160e-05  -2.6470526e-04  -7.1072380e-05  -1.2090841e-04   1.4455182e-04  -1.1191534e-05  -5.5850615e-06  -8.3163990e-05  -1.8192562e-04  -1.6065813e-04  -3.5880191e-07   6.3694741e-05  -1.7488036e-04   3.0662282e-04   1.6188068e-04   1.9026412e-04   2.5037717e-04  -1.8097351e-04   1.0686273e-04   1.1218604e-03   1.4400740e-03   4.3871058e-04   7.4886951e-04   4.8920740e-04   2.6284110e-04   0.0000000e+00   7.3233797e-04   9.2566274e-04   2.8948019e-04   3.6942091e-04   1.1347885e-04   1.8525759e-04   5.4574974e-04   2.0225977e-04   1.3776630e-04   2.1907226e-04   3.3863812e-04   6.8395930e-05   3.7863022e-04   4.4402357e-04   5.5166690e-04   1.7620748e-04   1.0849533e-03   8.9335703e-04   1.8773429e-04   3.3590772e-04   6.8401018e-05   1.0726521e-04   7.1630694e-04   2.4522441e-04  -2.4365695e-04
   9.9794589e-05   2.7133452e-05   1.2801369e-04   2.5635363e-05   2.6793504e-05  -1.2033036e-06   4.3268549e-05   3.7351423e-05   2.1826605e-05   4.0845118e-05   6.9356041e-06  -2.8218185e-05   0.0000000e+00   4.5934622e-05   2.4936101e-05   3.8651125e-05   1.0934934e-05   2.5534141e-06  -4.3632929e-06  -3.6813667e-05   4.9870871e-05   6.9254563e-05   3.6397396e-05   9.3848900e-05   1.8440238e-04   3.8673225e-06   2.1031401e-05   3.0267196e-05   2.4086453e-05   3.0562738e-05   9.9767658e-06   2.7275520e-05   3.8498261e-05   2.4902232e-05   3.8595951e-05   2.5768470e-05   7.4094772e-05   7.1410689e-05   1.5816683e-04   2.5630718e-05  -5.5410390e-05  -1.5716130e-04  -6.0913401e-06   4.2111219e-05  -3.9580218e-04  -2.5695443e-04  -2.2026208e-05  -7.3582545e-05  -9.9808506e-05  -1.2934605e-05   0.0000000e+00  -3.3854475e-04  -1.2988325e-04  -8.2308704e-05  -4.6623591e-05  -3.0866195e-05  -5.8051022e-05  -7.4535746e-06   9.5460004e-05  -7.4420710e-06   3.1187265e-05   1.3345862e-05   7.0018735e-05   1.1499807e-04   1.3591716e-04   1.3598909e-04   1.0436362e-05  -8.4380171e-05  -2.7458189e-04  -1.0126732e-05  -7.3223525e-05   1.1446359e-04   2.8184143e-05  -1.6568654e-04  -4.0624135e-05   7.6831553e-05   1.6407915e-05  -7.8340305e-05  -1.8785223e-04  -1.1881504e-04  -1.3967633e-04  -2.5195086e-04   2.3798396e-05  -1.1710293e-04  -1.5721510e-04  -3.2302206e-04  -3.8513640e-04  -4.2581030e-04   0.0000000e+00  -5.2440945e-05  -1.5444096e-04  -1.9285162e-04  -3.3742123e-04  -2.6820722e-04  -3.6466466e-04  -5.9898242e-04  -3.4793648e-04  -1.3946798e-04  -2.1546612e-04  -1.1248570e-04  -1.2897174e-04  -4.2319876e-04  -2.9163079e-04  -2.1835031e-04  -5.5556443e-05  -4.7145870e-05   5.1720844e-05  -2.9313710e-04  -2.4620300e-04  -6.8544290e-05  -6.5492893e-05  -7.4279505e-05   1.4265891e-05   4.9703643e-06   9.2986317e-05  -4.0822755e-05  -1.3824954e-04  -6.5623398e-05  -1.2927740e-05  -6.1675474e-05   5.9083228e-05   4.0713538e-05  -1.4101819e-04  -2.0621096e-04  -9.9407895e-05  -9.8988048e-05   0.0000000e+00   4.0866640e-05  -6.8031100e-05  -1.1669204e-04  -8.1645101e-05  -8.7717879e-05  -1.0793031e-04  -2.7423218e-04   7.1441902e-06   4.4782524e-05  -5.1708313e-05   4.0647006e-05   3.7732708e-05  -1.3071769e-04  -2.3924392e-04  -1.3306324e-04  -1.1302171e-04   5.0566563e-05  -4.5906965e-05  -4.8147795e-05  -2.0175537e-05  -1.3370354e-04  -8.0230259e-05  -3.5124752e-05   1.7095080e-05  -6.2030084e-05   8.0994714e-05   5.5183476e-06  -1.9123513e-04   7.0993340e-05   1.8169653e-05   1.1329463e-05  -1.6746518e-04  -1.7654471e-04  -4.9471475e-05  -1.0771054e-04   5.4472699e-05   1.6199670e-05   0.0000000e+00  -8.3213839e-06  -9.2329399e-05  -9.0367424e-05  -1.2604482e-05   7.8098901e-05   3.2774401e-05  -1.7902860e-04   6.0441934e-05  -2.5794803e-05  -2.4895728e-06  -1.9566252e-05  -5.1668330e-05  -2.1703722e-05  -4.4494398e-05   9.7015471e-06  -5.6096221e-05  -6.4522683e-05  -6.6516997e-05  -1.8910200e-06   5.4117756e-05  -3.9845753e-05  -3.2592943e-05  -3.9084188e-05   3.4682759e-05   3.8911986e-04   8.7065520e-05  -1.0560075e-05  -1.1959049e-04   1.9979919e-05   1.0145119e-04   1.0981798e-05  -7.2967519e-05  -1.3305330e-04  -6.0041583e-05  -1.1867614e-04  -1.0710918e-05  -2.8053230e-05   0.0000000e+00   1.0909466e-04  -5.1468018e-05  -6.5504620e-05  -7.1888125e-05   6.2882587e-07  -3.0846446e-06  -2.0687162e-04   8.1113278e-05   3.8588869e-05   1.2838980e-05   2.9585281e-05   5.2631813e-05  -5.0201518e-05  -1.4751670e-04  -6.6566523e-05  -1.0129549e-05  -6.5597843e-05  -3.8560296e-05   3.0918899e-05   5.6051305e-05  -8.3117175e-05  -1.4905173e-05  -2.3506033e-05  -2.9048943e-06   6.5883637e-05  -2.9792425e-05   1.9209434e-05  -4.2385222e-04  -8.0280950e-05  -5.8265194e-05   5.9638023e-05  -2.1964429e-04  -3.1452926e-04  -1.4864148e-04  -2.3369420e-04  -3.5275220e-05   1.4981751e-04   0.0000000e+00  -1.3028508e-04  -3.1992519e-04  -1.8387800e-04  -7.6030961e-06  -1.2366017e-05   3.0877266e-05  -5.7658751e-05   1.9432734e-04   3.7319955e-05   9.4816254e-05   3.2994689e-05  -4.1251674e-05   1.9369550e-04   7.9541562e-05   3.8964874e-05  -5.9564440e-05  -2.5770539e-05  -1.3870011e-04   2.0137160e-04   1.7946056e-04   3.6503751e-05  -1.5228291e-05  -2.4759430e-04  -2.3038279e-04  -3.0405773e-05   1.3646441e-04   1.0053048e-06  -2.5317837e-04  -1.4696509e-05  -1.8147956e-05  -4.8952866e-05  -9.2185358e-05  -2.2912780e-04  -1.8452144e-04  -2.9284065e-04  -7.7634901e-05  -4.4595307e-05   0.0000000e+00   8.8338866e-05  -2.4523071e-04  -1.3361335e-04  -8.7057051e-05  -4.9084339e-05  -4.9781603e-05  -4.6108631e-04  -4.4020766e-05  -3.5997425e-05  -9.4242756e-05  -7.0486805e-05  -9.6153137e-05  -2.6174881e-04  -3.2840032e-04  -2.3925442e-04  -1.2706137e-04  -1.3358856e-04  -1.0217809e-04  -1.0063953e-04  -2.1373047e-05  -1.8896309e-04  -9.4172128e-05  -1.4523018e-04  -1.0956848e-04  -9.4967676e-05  -1.3367708e-04  -3.5747239e-05  -1.4083950e-04  -1.6030277e-04  -1.1210987e-04  -4.7783007e-05  -9.7484498e-05  -1.8999716e-04  -2.0813879e-04  -1.1297739e-04  -1.0276898e-05  -2.1276916e-05   0.0000000e+00  -2.4772100e-04  -3.8587474e-05  -1.4951108e-04  -5.8903870e-05  -8.9041287e-05  -8.1602456e-05  -1.6348185e-05  -1.4422004e-04  -6.6038824e-05  -3.7951419e-05  -6.8429690e-05  -1.6204899e-04   1.6033864e-06  -1.7812743e-04  -1.3767625e-04  -2.3224632e-04   3.0750200e-04   1.6347813e-04  -1.6594119e-05  -2.4359418e-04  -1.3352462e-04  -1.4272096e-04   3.0378141e-04   1.7100103e-04   3.9949316e-05   3.1584727e-04  -6.2135233e-05  -6.6164661e-04  -6.0287429e-04  -1.2741255e-04  -1.6153009e-05  -7.1217958e-05  -3.4669800e-04  -2.7489030e-04  -4.1144193e-04  -8.1016149e-05   6.2239291e-05   0.0000000e+00  -3.7810437e-06  -3.1385120e-04  -3.3702777e-04  -2.5909287e-04   7.2054535e-05  -1.2542195e-05  -5.4085415e-04   2.4329655e-04  -5.3284759e-05  -4.6978535e-06  -8.3608841e-05  -9.1138621e-05   3.5349841e-05  -2.8406495e-04  -1.3312728e-04  -7.3765155e-05   4.2146264e-05  -7.9757602e-05   1.3844672e-04   1.7454388e-04  -1.2406977e-04  -8.7912422e-05   2.0043334e-05   4.5232365e-05  -7.4947775e-07  -1.5327531e-05  -9.9117222e-05  -3.0441741e-04   3.0368356e-05   2.5712890e-05  -7.9098752e-05   1.3500129e-04   1.6193064e-04  -1.7173248e-04  -2.0190496e-04  -1.2939679e-04  -1.1506012e-04   0.0000000e+00  -1.9544550e-05   3.9671666e-05  -1.7202005e-04  -8.5224370e-05  -1.4245124e-04  -1.0468841e-04  -8.7626672e-05  -4.4163545e-05  -1.7568095e-05  -8.9197494e-05   3.3464576e-05  -6.7021813e-05  -3.8472564e-05  -2.8444534e-04  -7.8220017e-05  -1.3296087e-04   1.6068688e-04  -1.1996541e-05  -3.6036596e-06  -8.3147042e-05  -1.9211386e-04  -1.7939975e-04   3.7392066e-06   5.7994472e-05  -2.2102735e-04   3.5884356e-04   1.8532146e-04   1.0260637e-04   2.2158867e-04  -1.5460153e-04   1.0456682e-04   1.3215209e-03   1.7166356e-03   4.2578294e-04   7.1270665e-04   4.6777414e-04   2.3539428e-04   0.0000000e+00   8.6052567e-04   1.0437823e-03   2.7639798e-04   3.3512146e-04   1.0601554e-04   1.8246518e-04   5.1149680e-04   2.1306751e-04   1.4547282e-04   1.9591035e-04   3.3743513e-04   4.8768016e-05   3.6615694e-04   4.3429232e-04   5.7577715e-04   1.8544614e-04   1.2060265e-03   1.0504265e-03   2.1165685e-04   3.6595487e-04   4.7850545e-05   1.1016226e-04   8.0583256e-04   2.8681200e-04  -3.0908082e-04
   1.1474788e-04   3.0215424e-05   1.1975140e-04   2.8638264e-05   2.8111179e-05  -2.3974410e-06   3.7794748e-05   2.6338014e-05   1.4765802e-05   2.8067290e-05   1.6419096e-07  -3.2822186e-05   0.0000000e+00   4.8510015e-05   1.8274804e-05   3.1528723e-05   5.0445375e-06  -6.0731260e-06  -1.0176599e-05  -5.8865559e-05   5.6243420e-05   7.2503140e-05   3.7391881e-05   1.0183675e-04   1.9222075e-04  -6.1630650e-07   1.1849358e-05   2.6349561e-05   1.8264972e-05   2.5508190e-05   7.5937627e-06   3.1252569e-05   4.2733197e-05   1.9227033e-05   3.6508559e-05   2.2316246e-05   7.6974556e-05   7.9896807e-05   1.7652149e-04   2.1815520e-05  -1.1475954e-04  -1.9004456e-04  -2.3153119e-05   3.4042823e-05  -4.3220524e-04  -2.9559583e-04  -4.1485218e-05  -1.1579956e-04  -1.2328828e-04  -3.1447740e-05   0.0000000e+00  -3.5718433e-04  -1.5517562e-04  -1.0026243e-04  -5.4223771e-05  -4.5064013e-05  -8.4277373e-05  -2.7871723e-05   9.4355049e-05  -2.0088565e-05   1.7058411e-05  -4.3102170e-07   4.8989286e-05   1.0839870e-04   1.3554771e-04   1.3701844e-04   3.0498234e-06  -9.9366804e-05  -2.9704265e-04  -2.7332772e-05  -9.1189247e-05   1.2507481e-04   2.6798694e-05  -2.0007492e-04  -3.9912307e-05   8.7645422e-05   1.3297865e-05  -9.1692007e-05  -2.1105092e-04  -1.2376021e-04  -1.4694832e-04  -2.7011859e-04   2.0791301e-05  -1.1531683e-04  -1.7594895e-04  -3.4591605e-04  -4.1041956e-04  -4.5580715e-04   0.0000000e+00  -6.3472789e-05  -1.5387391e-04  -2.0095303e-04  -3.6438124e-04  -2.9353337e-04  -4.0189108e-04  -6.3448951e-04  -3.9326610e-04  -1.5871929e-04  -2.3361690e-04  -1.2294294e-04  -1.3743787e-04  -4.4738606e-04  -3.2846922e-04  -2.3598857e-04  -5.8202912e-05  -4.7804679e-05   8.0598465e-05  -3.1906459e-04  -2.8955442e-04  -7.4539381e-05  -6.9994921e-05  -7.9204776e-05   2.2582239e-05   1.3133014e-05   1.0020681e-04  -4.6840544e-05  -1.6337450e-04  -6.8133108e-05  -1.2109976e-05  -6.7254536e-05   5.3303913e-05   3.1443288e-05  -1.5556332e-04  -2.3277728e-04  -1.1340402e-04  -1.0519015e-04   0.0000000e+00   3.4207793e-05  -8.1882368e-05  -1.3319204e-04  -9.6371213e-05  -1.0086894e-04  -1.1992580e-04  -3.0059993e-04   2.6543877e-06   4.4853648e-05  -6.0805994e-05   4.1375181e-05   3.3178305e-05  -1.4445336e-04  -2.6995410e-04  -1.4844292e-04  -1.2419784e-04   4.5790028e-05  -5.4886508e-05  -5.4007011e-05  -2.7937191e-05  -1.4870444e-04  -9.1005965e-05  -4.2730673e-05   8.1659832e-06  -7.9607763e-05   8.5923205e-05   1.5761739e-06  -2.6093299e-04   6.3119710e-05   9.2436354e-06   6.5409598e-06  -2.0424087e-04  -2.1294241e-04  -7.0574483e-05  -1.4443791e-04   5.6177202e-05   1.5722329e-05   0.0000000e+00  -2.7765430e-05  -1.1614558e-04  -1.1068965e-04  -1.7909544e-05   8.6625532e-05   2.9010033e-05  -2.3651647e-04   7.7621731e-05  -3.8906246e-05  -1.2585226e-05  -3.0713233e-05  -8.2744578e-05  -4.1447177e-05  -7.3693228e-05  -7.7645168e-06  -7.3011068e-05  -7.6456655e-05  -8.2233462e-05  -6.9148046e-07   6.5286151e-05  -6.1516188e-05  -4.6066278e-05  -5.4803646e-05   2.7976146e-05   4.1636444e-04   1.0353367e-04  -1.0808977e-05  -1.5150462e-04   2.4244118e-05   1.0881739e-04   1.0526287e-05  -9.8523765e-05  -1.6845718e-04  -7.3319762e-05  -1.3935171e-04  -1.5339212e-05  -3.1569676e-05   0.0000000e+00   9.2086147e-05  -7.0032836e-05  -8.0831467e-05  -8.7523957e-05  -6.5632450e-06  -1.1278561e-05  -2.3161196e-04   7.8790374e-05   3.1407721e-05   8.0825802e-06   2.7283701e-05   3.7965796e-05  -5.3475821e-05  -1.5635632e-04  -7.0706296e-05  -9.8536917e-06  -8.1251575e-05  -3.7004217e-05   2.8837705e-05   5.5352092e-05  -8.6165581e-05  -1.7539380e-05  -3.1516446e-05  -1.2193968e-05   6.6054540e-05  -5.8042389e-05   2.5692400e-05  -4.9176717e-04  -9.3743123e-05  -7.8228038e-05   6.0161951e-05  -2.4418169e-04  -3.6966029e-04  -1.4102870e-04  -2.3897160e-04  -2.7052213e-05   1.7117388e-04   0.0000000e+00  -1.5407643e-04  -3.6121089e-04  -1.9333931e-04   2.0012335e-05  -1.0157893e-05   3.8691779e-05  -4.8126344e-05   2.1932508e-04   3.8536700e-05   9.9924792e-05   3.4046099e-05  -6.5690815e-05   1.9737183e-04   9.1565251e-05   4.1078208e-05  -5.7262210e-05  -4.2041941e-05  -1.6680475e-04   2.2257677e-04   2.0037922e-04   3.7793220e-05  -6.7294432e-06  -3.0069776e-04  -2.7941432e-04  -7.4290945e-05   1.4527743e-04  -2.2790456e-07  -2.9318075e-04  -1.0896657e-05  -1.0072500e-05  -4.5452399e-05  -1.0066621e-04  -2.5307339e-04  -2.0661990e-04  -3.2734605e-04  -8.5284710e-05  -3.8020363e-05   0.0000000e+00   1.0155960e-04  -2.7134670e-04  -1.5592887e-04  -9.6853639e-05  -5.3456165e-05  -4.6339689e-05  -4.9972779e-04  -4.5183538e-05  -4.0401100e-05  -1.0182252e-04  -8.2358207e-05  -1.1002595e-04  -2.7533810e-04  -3.6974463e-04  -2.6750718e-04  -1.4051277e-04  -1.4785923e-04  -9.6239392e-05  -1.0899890e-04  -2.8083986e-05  -2.0846357e-04  -1.0370345e-04  -1.5128630e-04  -1.0495126e-04  -8.4295669e-05  -1.4683388e-04  -4.7082297e-05  -1.5339969e-04  -1.7321680e-04  -1.1120476e-04  -4.4571540e-05  -8.7996416e-05  -1.8214730e-04  -2.3018003e-04  -1.3232090e-04  -4.8481567e-06  -1.3342947e-05   0.0000000e+00  -2.4376636e-04  -4.4384182e-05  -1.6676469e-04  -6.5299230e-05  -7.4128299e-05  -7.3592380e-05  -2.7413447e-05  -1.3769133e-04  -6.8618439e-05  -3.8390269e-05  -7.7782308e-05  -1.7386293e-04   1.2866190e-05  -1.9552479e-04  -1.5185029e-04  -2.6386532e-04   3.7006051e-04   1.7326831e-04  -7.7978952e-06  -2.4706975e-04  -1.5416085e-04  -1.6414253e-04   3.7569984e-04   1.8461913e-04   9.1590931e-06   3.4917662e-04  -6.8625883e-05  -7.2176847e-04  -6.6553287e-04  -1.3617472e-04  -1.9208016e-05  -1.0129918e-04  -3.9752948e-04  -3.0494967e-04  -4.6054098e-04  -1.0039748e-04   6.2717813e-05   0.0000000e+00  -8.7488303e-06  -3.4360197e-04  -3.7734652e-04  -2.9570934e-04   6.8535478e-05  -1.5300215e-05  -5.9787154e-04   2.6544630e-04  -6.2491407e-05  -1.2724368e-06  -9.6874325e-05  -1.1062816e-04   2.8820149e-05  -3.1589992e-04  -1.5284481e-04  -7.9490748e-05   3.4584185e-05  -8.8839159e-05   1.5125190e-04   1.9058904e-04  -1.4290543e-04  -9.5337593e-05   2.3227160e-05   3.7188565e-05   4.6697883e-06  -8.8279601e-06  -1.0046233e-04  -3.7645881e-04   1.5711295e-05   2.1518215e-05  -8.8921877e-05   1.6017968e-04   1.9125331e-04  -1.8564096e-04  -2.2793913e-04  -1.3851189e-04  -1.1779976e-04   0.0000000e+00  -3.4596324e-05   4.1962457e-05  -1.8905140e-04  -9.3425877e-05  -1.5133363e-04  -1.1273957e-04  -1.0143799e-04  -5.1213115e-05  -3.5520095e-05  -9.7016260e-05   2.4190218e-05  -1.2072354e-04  -4.2586860e-05  -2.9916407e-04  -8.4577105e-05  -1.4366371e-04   1.7507437e-04  -1.2391039e-05  -1.0038041e-06  -8.0096934e-05  -1.9907175e-04  -1.9631854e-04   9.4686262e-06   4.8882081e-05  -2.6948737e-04   3.9762013e-04   2.0186251e-04   2.9203117e-05   1.9923947e-04  -1.2343807e-04   9.7869452e-05   1.4958164e-03   1.9732503e-03   4.0937685e-04   6.6302070e-04   4.3537489e-04   1.9780042e-04   0.0000000e+00   9.6004179e-04   1.1419830e-03   2.6041925e-04   2.9154292e-04   9.3045225e-05   1.7271297e-04   4.6375961e-04   2.1280338e-04   1.5029644e-04   1.6974500e-04   3.2955494e-04   3.3562895e-05   3.4429575e-04   4.1408755e-04   5.8872533e-04   1.9149824e-04   1.2986657e-03   1.1800285e-03   2.2875486e-04   3.8802477e-04   2.6029934e-05   1.0970235e-04   8.7588541e-04   3.1534539e-04  -3.6249316e-04
   1.2848928e-04   3.2819167e-05   1.0649344e-04   3.0911099e-05   2.8615010e-05  -3.6570537e-06   3.0518188e-05   1.3182017e-05   5.7577542e-06   1.2194869e-05  -7.5618986e-06  -3.7096868e-05   0.0000000e+00   4.9862727e-05   9.7572980e-06   2.2245797e-05  -1.7283368e-06  -1.5467699e-05  -1.6431941e-05  -8.2563015e-05   6.2004603e-05   7.4172637e-05   3.7505717e-05   1.0801851e-04   1.9572510e-04  -5.5538086e-06   1.1452183e-06   2.1254593e-05   1.0853955e-05   1.9313233e-05   4.2200469e-06   3.4937804e-05   4.6601838e-05   1.2149785e-05   3.2899962e-05   1.7427569e-05   7.7880223e-05   8.8168675e-05   1.8875398e-04   1.5762259e-05  -1.8037933e-04  -2.2246780e-04  -4.4134603e-05   2.1795507e-05  -4.6082132e-04  -3.3408731e-04  -6.3374227e-05  -1.6175855e-04  -1.4642914e-04  -5.3247222e-05   0.0000000e+00  -3.6953310e-04  -1.8083732e-04  -1.1776927e-04  -6.0504601e-05  -6.1204101e-05  -1.1355495e-04  -5.1097299e-05   8.6751517e-05  -3.4593749e-05  -5.9727205e-07  -1.7142546e-05   2.4307628e-05   9.6005958e-05   1.3065659e-04   1.3437654e-04  -5.9063624e-06  -1.1576289e-04  -3.1290133e-04  -4.8223339e-05  -1.1091674e-04   1.3378276e-04   2.4299974e-05  -2.3625437e-04  -3.6127809e-05   1.0341956e-04   9.7290225e-06  -1.0321746e-04  -2.2217318e-04  -1.2501680e-04  -1.5159097e-04  -2.8145114e-04   1.8676326e-05  -1.0495534e-04  -1.8669980e-04  -3.5546583e-04  -4.2493332e-04  -4.7284727e-04   0.0000000e+00  -7.9122959e-05  -1.4395128e-04  -1.9937029e-04  -3.7981215e-04  -3.1183549e-04  -4.3109576e-04  -6.4814711e-04  -4.3232193e-04  -1.7557759e-04  -2.4757427e-04  -1.3077865e-04  -1.4305881e-04  -4.6101456e-04  -3.5683163e-04  -2.4968205e-04  -6.0784247e-05  -4.3515312e-05   1.0932310e-04  -3.3882970e-04  -3.3196581e-04  -7.7352426e-05  -7.3580309e-05  -8.1751405e-05   3.1459408e-05   2.0421748e-05   1.0520434e-04  -5.2335379e-05  -1.8537037e-04  -6.8373963e-05  -1.1335688e-05  -7.1751121e-05   4.5637396e-05   2.1152884e-05  -1.6667348e-04  -2.5444678e-04  -1.2582939e-04  -1.0884014e-04   0.0000000e+00   2.5750917e-05  -9.4567781e-05  -1.4728164e-04  -1.0954475e-04  -1.1246900e-04  -1.2968980e-04  -3.2019130e-04  -2.9189325e-06   4.3431541e-05  -6.9565190e-05   4.0807769e-05   2.6342261e-05  -1.5592372e-04  -2.9674282e-04  -1.6164224e-04  -1.3392398e-04   3.9552803e-05  -6.3828279e-05  -5.9323872e-05  -3.6342895e-05  -1.6164818e-04  -1.0121577e-04  -4.9695051e-05  -2.8941672e-06  -9.8217214e-05   9.0091512e-05  -2.3613880e-06  -3.3400177e-04   5.2687254e-05  -1.8350548e-06   9.0869317e-07  -2.3907673e-04  -2.4932944e-04  -9.2446780e-05  -1.8227889e-04   5.5394445e-05   1.5034756e-05   0.0000000e+00  -4.7832253e-05  -1.3902725e-04  -1.3052964e-04  -2.2110637e-05   9.3313843e-05   2.3706066e-05  -2.9535319e-04   9.8577393e-05  -5.2092485e-05  -2.4435063e-05  -4.1587913e-05  -1.1590744e-04  -6.3209329e-05  -1.0661511e-04  -2.9041761e-05  -9.1150634e-05  -8.8076507e-05  -9.7491555e-05   1.8394197e-06   7.7117696e-05  -8.6352338e-05  -6.0116112e-05  -7.2058189e-05   1.7899130e-05   4.3106763e-04   1.1958268e-04  -1.0751957e-05  -1.8364439e-04   2.7637027e-05   1.1358279e-04   9.8313277e-06  -1.2388114e-04  -2.0188142e-04  -8.6059760e-05  -1.5848607e-04  -2.0005387e-05  -3.4367969e-05   0.0000000e+00   7.0967644e-05  -8.8903373e-05  -9.5654436e-05  -1.0230726e-04  -1.4450550e-05  -2.0139549e-05  -2.5249342e-04   7.3256848e-05   2.1203690e-05   2.4423684e-06   2.2848282e-05   1.8897771e-05  -5.5145980e-05  -1.6035264e-04  -7.2786068e-05  -9.1286743e-06  -9.6114959e-05  -3.3552803e-05   2.5547266e-05   5.3093866e-05  -8.6221295e-05  -2.0007994e-05  -3.9123089e-05  -2.1875737e-05   6.4127088e-05  -9.3245104e-05   3.2203832e-05  -5.5214478e-04  -1.0620384e-04  -9.9591448e-05   6.0216602e-05  -2.6499283e-04  -4.2081860e-04  -1.2631052e-04  -2.3592052e-04  -1.4738269e-05   1.9174479e-04   0.0000000e+00  -1.7758643e-04  -3.9556965e-04  -1.9665705e-04   5.1689333e-05  -5.2558158e-06   4.7696880e-05  -3.1495956e-05   2.4179799e-04   3.9284277e-05   1.0320514e-04   3.5289938e-05  -9.0873548e-05   1.9777816e-04   1.0596879e-04   4.4153169e-05  -5.1035931e-05  -6.0092238e-05  -1.9201409e-04   2.4067561e-04   2.1807649e-04   3.9943226e-05   5.0227665e-06  -3.5348144e-04  -3.2356467e-04  -1.1350190e-04   1.5375515e-04  -1.3506139e-06  -3.3153744e-04  -6.4878432e-06   1.1875632e-06  -3.9737875e-05  -1.0792409e-04  -2.7386493e-04  -2.2724065e-04  -3.5845740e-04  -9.3280920e-05  -2.9797544e-05   0.0000000e+00   1.1238628e-04  -2.9454299e-04  -1.7864519e-04  -1.0811264e-04  -5.8823333e-05  -4.1685112e-05  -5.2986803e-04  -4.6344101e-05  -4.4062023e-05  -1.0768538e-04  -9.3601900e-05  -1.2216732e-04  -2.8250924e-04  -4.0683320e-04  -2.9186805e-04  -1.5152736e-04  -1.6258697e-04  -8.4805093e-05  -1.1554141e-04  -3.5501543e-05  -2.2446231e-04  -1.1140731e-04  -1.5541208e-04  -9.7024673e-05  -6.9206000e-05  -1.5789955e-04  -5.9822979e-05  -1.6623296e-04  -1.8395310e-04  -1.0834138e-04  -4.0847544e-05  -7.6973818e-05  -1.7066092e-04  -2.5081508e-04  -1.5441602e-04  -1.7569734e-06  -5.5334721e-06   0.0000000e+00  -2.3315459e-04  -5.1623150e-05  -1.8411408e-04  -7.3061898e-05  -5.8268177e-05  -6.4554069e-05  -4.2710100e-05  -1.2713897e-04  -7.1006246e-05  -3.8611625e-05  -8.8608640e-05  -1.8458473e-04   2.3179875e-05  -2.1520998e-04  -1.6667881e-04  -2.9474747e-04   4.3748274e-04   1.7955841e-04   2.0622516e-06  -2.4588827e-04  -1.7604855e-04  -1.8599654e-04   4.5401807e-04   1.9608688e-04  -2.9455127e-05   3.7867912e-04  -7.3674888e-05  -7.7177809e-04  -7.2142446e-04  -1.4436392e-04  -2.1918150e-05  -1.2957339e-04  -4.4494021e-04  -3.3331070e-04  -5.0457815e-04  -1.1937965e-04   6.2156324e-05   0.0000000e+00  -1.4062402e-05  -3.6942367e-04  -4.1352240e-04  -3.2993634e-04   6.3679176e-05  -1.8353594e-05  -6.4762420e-04   2.8306868e-04  -7.3297493e-05   1.8928402e-06  -1.1054545e-04  -1.3306394e-04   2.0621636e-05  -3.4407537e-04  -1.7179700e-04  -8.4900755e-05   2.4611509e-05  -9.7064818e-05   1.6132672e-04   2.0309003e-04  -1.6055384e-04  -1.0241275e-04   2.5502933e-05   2.4672833e-05   9.0919716e-06  -5.8934973e-06  -9.9996086e-05  -4.4647167e-04  -1.6480317e-06   1.5390286e-05  -9.8390992e-05   1.7924398e-04   2.2046401e-04  -1.9516997e-04  -2.5198782e-04  -1.4566551e-04  -1.1879863e-04   0.0000000e+00  -5.6707573e-05   4.3619065e-05  -2.0273529e-04  -1.0103872e-04  -1.5746309e-04  -1.1808621e-04  -1.1553144e-04  -5.7697030e-05  -5.5992024e-05  -1.0265337e-04   1.2555024e-05  -1.7976076e-04  -4.6482968e-05  -3.0884739e-04  -9.0163682e-05  -1.5291664e-04   1.8721212e-04  -1.2197399e-05   2.4598936e-06  -7.4256078e-05  -2.0315013e-04  -2.1106993e-04   1.6559671e-05   3.6326520e-05  -3.1986280e-04   4.2013869e-04   2.1079806e-04  -2.2571884e-05   1.8722386e-04  -9.0971640e-05   8.7486327e-05   1.6379518e-03   2.2003744e-03   3.9417458e-04   6.0774616e-04   3.9696906e-04   1.5333996e-04   0.0000000e+00   1.0246194e-03   1.2185348e-03   2.4483236e-04   2.4429172e-04   7.5422382e-05   1.5708671e-04   4.0954308e-04   2.0134977e-04   1.5226233e-04   1.4340782e-04   3.1656007e-04   2.3644644e-05   3.1568516e-04   3.8700592e-04   5.9204258e-04   1.9402079e-04   1.3606477e-03   1.2749479e-03   2.3802383e-04   4.0170952e-04   4.6852443e-06   1.0570388e-04   9.2442013e-04   3.2841959e-04  -4.0155667e-04
   1.4056739e-04   3.4797704e-05   8.8411303e-05   3.2195834e-05   2.8221203e-05  -4.9685333e-06   2.1702002e-05  -1.8094742e-06  -5.1428685e-06  -6.5909754e-06  -1.6058283e-05  -4.0945362e-05   0.0000000e+00   4.9948748e-05  -6.5124810e-07   1.0981183e-05  -9.1707180e-06  -2.5281438e-05  -2.2931536e-05  -1.0738308e-04   6.6989683e-05   7.4212235e-05   3.6708495e-05   1.1208840e-04   1.9479994e-04  -1.0844351e-05  -1.0840869e-05   1.5099019e-05   2.0054780e-06   1.2238028e-05  -2.0453210e-07   3.8171311e-05   5.0048003e-05   3.8681540e-06   2.7842531e-05   1.1207235e-05   7.6751683e-05   9.6218667e-05   1.9284321e-04   7.3481641e-06  -2.4915764e-04  -2.5272939e-04  -6.8464641e-05   5.3745811e-06  -4.8125000e-04  -3.7181405e-04  -8.6452990e-05  -2.0959496e-04  -1.6841852e-04  -7.7947909e-05   0.0000000e+00  -3.7636881e-04  -2.0599770e-04  -1.3397701e-04  -6.5119954e-05  -7.9066572e-05  -1.4503405e-04  -7.6088769e-05   7.1950779e-05  -5.0445013e-05  -2.1103349e-05  -3.6350985e-05  -2.6988227e-06   7.8091469e-05   1.2159858e-04   1.2844883e-04  -1.5980680e-05  -1.3358128e-04  -3.2177966e-04  -7.2301665e-05  -1.3221848e-04   1.4049426e-04   2.0869041e-05  -2.7355290e-04  -2.9470696e-05   1.2443819e-04   5.8490017e-06  -1.1240430e-04  -2.1918943e-04  -1.2288003e-04  -1.5401232e-04  -2.8564323e-04   1.8316952e-05  -8.5653446e-05  -1.8805397e-04  -3.5080512e-04  -4.2830556e-04  -4.7615425e-04   0.0000000e+00  -9.9388211e-05  -1.2444170e-04  -1.8760878e-04  -3.8245593e-04  -3.2221509e-04  -4.5137167e-04  -6.3903959e-04  -4.6333975e-04  -1.8939913e-04  -2.5706475e-04  -1.3574056e-04  -1.4588796e-04  -4.6387061e-04  -3.7529463e-04  -2.5956555e-04  -6.3710084e-05  -3.3762008e-05   1.3550638e-04  -3.5172600e-04  -3.7176931e-04  -7.6809290e-05  -7.6456772e-05  -8.1837334e-05   4.0601780e-05   2.6286941e-05   1.0781159e-04  -5.7123969e-05  -2.0317628e-04  -6.6403182e-05  -1.0773911e-05  -7.5052161e-05   3.6690451e-05   1.0871048e-05  -1.7386772e-04  -2.7017865e-04  -1.3617683e-04  -1.0979386e-04   0.0000000e+00   1.6078508e-05  -1.0538088e-04  -1.5831980e-04  -1.2048573e-04  -1.2197962e-04  -1.3678592e-04  -3.3207910e-04  -9.2865177e-06   4.0638648e-05  -7.7710596e-05   3.8995569e-05   1.7364814e-05  -1.6477518e-04  -3.1883617e-04  -1.7234032e-04  -1.4211691e-04   3.2438148e-05  -7.2509779e-05  -6.3932483e-05  -4.5134596e-05  -1.7226840e-04  -1.1068422e-04  -5.5659303e-05  -1.5605968e-05  -1.1739702e-04   9.3539441e-05  -6.0664373e-06  -4.0787987e-04   4.0132743e-05  -1.4749810e-05  -5.3667400e-06  -2.7048961e-04  -2.8459021e-04  -1.1425469e-04  -2.1996127e-04   5.1858075e-05   1.4184343e-05   0.0000000e+00  -6.6996202e-05  -1.5966387e-04  -1.4935514e-04  -2.4933416e-05   9.7703453e-05   1.6993380e-05  -3.5330513e-04   1.2293733e-04  -6.4931318e-05  -3.7798524e-05  -5.1896447e-05  -1.5040612e-04  -8.6378614e-05  -1.4229835e-04  -5.3681448e-05  -1.1005914e-04  -9.9178308e-05  -1.1136990e-04   5.5754824e-06   8.9064915e-05  -1.1370481e-04  -7.4255487e-05  -9.0241886e-05   4.6721157e-06   4.3237448e-04   1.3469459e-04  -1.0450487e-05  -2.1488598e-04   2.9759607e-05   1.1555273e-04   8.9366867e-06  -1.4768612e-04  -2.3169345e-04  -9.7893990e-05  -1.7533948e-04  -2.4465445e-05  -3.6301795e-05   0.0000000e+00   4.7220202e-05  -1.0736583e-04  -1.0940337e-04  -1.1556873e-04  -2.2652744e-05  -2.9248650e-05  -2.6888301e-04   6.4780538e-05   8.2815728e-06  -3.8411786e-06   1.6280794e-05  -3.8397017e-06  -5.5197603e-05  -1.5932994e-04  -7.2742442e-05  -8.0318142e-06  -1.0946047e-04  -2.8434172e-05   2.1209927e-05   4.9524723e-05  -8.3331036e-05  -2.2259552e-05  -4.5844137e-05  -3.1308176e-05   6.0370577e-05  -1.3493900e-04   3.8380173e-05  -6.0176229e-04  -1.1692248e-04  -1.2135110e-04   6.0315456e-05  -2.8097303e-04  -4.6533780e-04  -1.0497483e-04  -2.2424531e-04   1.8949444e-06   2.1125619e-04   0.0000000e+00  -1.9986796e-04  -4.2179806e-04  -1.9333175e-04   8.6375242e-05   3.0029551e-06   5.8102429e-05  -7.5675808e-06   2.6097017e-04   3.9885916e-05   1.0492188e-04   3.7122805e-05  -1.1515592e-04   1.9597260e-04   1.2339614e-04   4.8832398e-05  -4.0667964e-05  -7.8833068e-05  -2.1271588e-04   2.5539705e-04   2.3239349e-04   4.3508561e-05   1.9960465e-05  -4.0413796e-04  -3.6024904e-04  -1.4392436e-04   1.6214888e-04  -2.2686185e-06  -3.6744122e-04  -1.6258937e-06   1.5420310e-05  -3.2127199e-05  -1.1349815e-04  -2.9064477e-04  -2.4583661e-04  -3.8520811e-04  -1.0167355e-04  -2.0407851e-05   0.0000000e+00   1.2028786e-04  -3.1395590e-04  -2.0123198e-04  -1.2082385e-04  -6.5327060e-05  -3.6212480e-05  -5.5056162e-04  -4.7709668e-05  -4.6990166e-05  -1.1181295e-04  -1.0392354e-04  -1.3241102e-04  -2.8324495e-04  -4.3858991e-04  -3.1164142e-04  -1.5980132e-04  -1.7783491e-04  -6.8106938e-05  -1.2008227e-04  -4.3372754e-05  -2.3657357e-04  -1.1722398e-04  -1.5783127e-04  -8.6953016e-05  -5.1497947e-05  -1.6718508e-04  -7.3633561e-05  -1.7928186e-04  -1.9251640e-04  -1.0421665e-04  -3.7013611e-05  -6.5851874e-05  -1.5708528e-04  -2.6941871e-04  -1.7853322e-04  -1.4407348e-06   1.6237000e-06   0.0000000e+00  -2.1767625e-04  -6.0285240e-05  -2.0105927e-04  -8.2086938e-05  -4.2654389e-05  -5.5242288e-05  -6.1197574e-05  -1.1365023e-04  -7.3453229e-05  -3.8803314e-05  -1.0099023e-04  -1.9442344e-04   3.2048816e-05  -2.3696535e-04  -1.8204742e-04  -3.2420707e-04   5.0819463e-04   1.8299419e-04   1.2426945e-05  -2.4117928e-04  -1.9856410e-04  -2.0771146e-04   5.3719434e-04   2.0550363e-04  -7.4811046e-05   4.0419628e-04  -7.6949659e-05  -8.1149603e-04  -7.7005991e-04  -1.5220455e-04  -2.3932099e-05  -1.5383962e-04  -4.8803974e-04  -3.5987083e-04  -5.4250098e-04  -1.3700786e-04   6.1276530e-05   0.0000000e+00  -1.9357170e-05  -3.9134671e-04  -4.4471100e-04  -3.6083974e-04   5.8520099e-05  -2.1173342e-05  -6.8893508e-04   2.9600796e-04  -8.5639256e-05   4.5399273e-06  -1.2426001e-04  -1.5842545e-04   1.1375371e-05  -3.6778796e-04  -1.8945046e-04  -9.0016061e-05   1.2644798e-05  -1.0414675e-04   1.6860341e-04   2.1195990e-04  -1.7634580e-04  -1.0919371e-04   2.6603914e-05   7.6371468e-06   1.1358500e-05  -7.5617221e-06  -9.7814167e-05  -5.1068150e-04  -2.0382852e-05   7.7325021e-06  -1.0703287e-04   1.9057341e-04   2.4865077e-04  -1.9935304e-04  -2.7279470e-04  -1.5075284e-04  -1.1813613e-04   0.0000000e+00  -8.6218377e-05   4.4853550e-05  -2.1207595e-04  -1.0764404e-04  -1.6055450e-04  -1.2026161e-04  -1.2908786e-04  -6.2897639e-05  -7.7865779e-05  -1.0586024e-04  -4.0975609e-07  -2.4173682e-04  -4.9860040e-05  -3.1351507e-04  -9.4958170e-05  -1.6057665e-04   1.9660675e-04  -1.1230045e-05   7.0860384e-06  -6.5970446e-05  -2.0470090e-04  -2.2332501e-04   2.4599282e-05   2.0453345e-05  -3.7164473e-04   4.2492935e-04   2.1212211e-04  -4.8254181e-05   1.8776064e-04  -6.0611983e-05   7.4366129e-05   1.7443314e-03   2.3912049e-03   3.8430378e-04   5.5422707e-04   3.5741615e-04   1.0552678e-04   0.0000000e+00   1.0512386e-03   1.2737201e-03   2.3259141e-04   1.9891269e-04   5.4304828e-05   1.3699824e-04   3.5587936e-04   1.7948059e-04   1.5148833e-04   1.1924798e-04   2.9988429e-04   1.8961590e-05   2.8295394e-04   3.5676465e-04   5.8751163e-04   1.9265775e-04   1.3921229e-03   1.3309313e-03   2.3901741e-04   4.0698357e-04  -1.4673410e-05   9.8100123e-05   9.5111229e-04   3.2504916e-04  -4.2533741e-04
   1.5059351e-04   3.6015391e-05   6.5768979e-05   3.2249746e-05   2.6870793e-05  -6.3372708e-06   1.1636808e-05  -1.8337099e-05  -1.7837383e-05  -2.8075205e-05  -2.5157141e-05  -4.4314266e-05   0.0000000e+00   4.8772829e-05  -1.2958434e-05  -2.0507358e-06  -1.7081228e-05  -3.5206945e-05  -2.9506597e-05  -1.3284003e-04   7.1037975e-05   7.2606730e-05   3.4973936e-05   1.1377789e-04   1.8943480e-04  -1.6425615e-05  -2.3881740e-05   7.9911132e-06  -8.0985049e-06   4.5267350e-06  -5.6915763e-06   4.0783311e-05   5.2994866e-05  -5.3992979e-06   2.1450510e-05   3.8147376e-06   7.3600175e-05   1.0401070e-04   1.8699099e-04  -3.4488645e-06  -3.1761674e-04  -2.7902135e-04  -9.5327340e-05  -1.4983897e-05  -4.9354068e-04  -4.0809122e-04  -1.0920071e-04  -2.5719364e-04  -1.8847979e-04  -1.0500545e-04   0.0000000e+00  -3.7879800e-04  -2.2967038e-04  -1.4798534e-04  -6.7762664e-05  -9.8321950e-05  -1.7767517e-04  -1.0153307e-04   4.9617502e-05  -6.7043073e-05  -4.3595261e-05  -5.7474190e-05  -3.0643133e-05   5.5283505e-05   1.0904689e-04   1.1983906e-04  -2.6605880e-05  -1.5274503e-04  -3.2365879e-04  -9.8835159e-05  -1.5480252e-04   1.4525478e-04   1.6751751e-05  -3.1120281e-04  -2.0394100e-05   1.5045292e-04   1.8263866e-06  -1.1892222e-04  -2.0126341e-04  -1.1788808e-04  -1.5473488e-04  -2.8281157e-04   2.0492667e-05  -5.7731871e-05  -1.7931182e-04  -3.3216228e-04  -4.2077110e-04  -4.6579093e-04   0.0000000e+00  -1.2371904e-04  -9.5819133e-05  -1.6594042e-04  -3.7180417e-04  -3.2416502e-04  -4.6230304e-04  -6.0782126e-04  -4.8490521e-04  -1.9970930e-04  -2.6201333e-04  -1.3771142e-04  -1.4611809e-04  -4.5625152e-04  -3.8312528e-04  -2.6596608e-04  -6.7305048e-05  -1.8427665e-05   1.5689161e-04  -3.5731216e-04  -4.0722162e-04  -7.3020233e-05  -7.8852293e-05  -7.9516114e-05   4.9793541e-05   3.0425287e-05   1.0797077e-04  -6.1053725e-05  -2.1597838e-04  -6.2415811e-05  -1.0568119e-05  -7.7088477e-05   2.7133227e-05   1.6440288e-06  -1.7685509e-04  -2.7923374e-04  -1.4402710e-04  -1.0802298e-04   0.0000000e+00   5.8331521e-06  -1.1370393e-04  -1.6581789e-04  -1.2861962e-04  -1.2895160e-04  -1.4089072e-04  -3.3567565e-04  -1.6102426e-05   3.6672183e-05  -8.4995195e-05   3.6057946e-05   6.5173530e-06  -1.7074956e-04  -3.3568628e-04  -1.8032627e-04  -1.4874454e-04   2.5072643e-05  -8.0733339e-05  -6.7690660e-05  -5.4039341e-05  -1.8040029e-04  -1.1925780e-04  -6.0338217e-05  -2.9366160e-05  -1.3661388e-04   9.6240887e-05  -9.3824204e-06  -4.8004140e-04   2.5924017e-05  -2.9093072e-05  -1.2061212e-05  -2.9726389e-04  -3.1763265e-04  -1.3519348e-04  -2.5630871e-04   4.5438442e-05   1.3190442e-05   0.0000000e+00  -8.3717661e-05  -1.7680783e-04  -1.6674906e-04  -2.6281152e-05   9.9439854e-05   9.0482701e-06  -4.0827665e-04   1.4999181e-04  -7.7110019e-05  -5.2369139e-05  -6.1510977e-05  -1.8558997e-04  -1.1032865e-04  -1.7965208e-04  -8.1085718e-05  -1.2923950e-04  -1.0961308e-04  -1.2294557e-04   1.0236549e-05   1.0046871e-04  -1.4277266e-04  -8.8019124e-05  -1.0865272e-04  -1.1274142e-05   4.2021116e-04   1.4839776e-04  -9.9930090e-06  -2.4417388e-04   3.0262935e-05   1.1467760e-04   7.8829755e-06  -1.6870167e-04  -2.5650667e-04  -1.0855376e-04  -1.8929203e-04  -2.8486504e-05  -3.7270783e-05   0.0000000e+00   2.2389813e-05  -1.2475306e-04  -1.2158639e-04  -1.2673344e-04  -3.0789135e-05  -3.8185108e-05  -2.8038965e-04   5.3777695e-05  -6.8856278e-06  -1.0514771e-05   7.7085760e-06  -2.9299413e-05  -5.3733320e-05  -1.5341470e-04  -7.0649264e-05  -6.6770722e-06  -1.2063594e-04  -2.1989109e-05   1.6026398e-05   4.4940156e-05  -7.7735428e-05  -2.4264897e-05  -5.1240714e-05  -3.9876858e-05   5.5150750e-05  -1.8227284e-04   4.3860684e-05  -6.3785375e-04  -1.2515371e-04  -1.4238231e-04   6.0980675e-05  -2.9109574e-04  -5.0075617e-04  -7.7829876e-05  -2.0399378e-04   2.2918639e-05   2.2949670e-04   0.0000000e+00  -2.1989811e-04  -4.3916821e-04  -1.8314802e-04   1.2292904e-04   1.5186808e-05   7.0113698e-05   2.3416290e-05   2.7627099e-04   4.0714698e-05   1.0544999e-04   3.9941972e-05  -1.3686477e-04   1.9311118e-04   1.4432371e-04   5.5697467e-05  -2.6108020e-05  -9.7013909e-05  -2.2755071e-04   2.6668924e-04   2.4349870e-04   4.8946775e-05   3.7860041e-05  -4.5100588e-04  -3.8730237e-04  -1.6201925e-04   1.7062025e-04  -2.8952949e-06  -4.0025395e-04   3.5631224e-06   3.2231474e-05  -2.3035880e-05  -1.1690106e-04  -3.0266593e-04  -2.6187827e-04  -4.0676153e-04  -1.1039651e-04  -1.0324504e-05   0.0000000e+00   1.2495842e-04  -3.2880289e-04  -2.2309716e-04  -1.3477119e-04  -7.2933434e-05  -3.0293318e-05  -5.6120955e-04  -4.9385445e-05  -4.9271357e-05  -1.1426634e-04  -1.1309915e-04  -1.4075910e-04  -2.7779410e-04  -4.6415035e-04  -3.2634999e-04  -1.6515180e-04  -1.9356069e-04  -4.6638459e-05  -1.2249942e-04  -5.1362005e-05  -2.4459202e-04  -1.2120158e-04  -1.5876761e-04  -7.6095459e-05  -3.3310634e-05  -1.7518509e-04  -8.8113401e-05  -1.9232182e-04  -1.9896668e-04  -9.9535706e-05  -3.3366865e-05  -5.5933678e-05  -1.4289728e-04  -2.8533112e-04  -2.0360913e-04  -3.9489575e-06   7.7831401e-06   0.0000000e+00  -1.9935905e-04  -7.0156751e-05  -2.1696039e-04  -9.2072391e-05  -2.8199648e-05  -4.6212140e-05  -8.1367496e-05  -9.8434100e-05  -7.6122247e-05  -3.9085308e-05  -1.1483911e-04  -2.0343040e-04   3.9241297e-05  -2.6016886e-04  -1.9765078e-04  -3.5150958e-04   5.8033375e-04   1.8453023e-04   2.2775729e-05  -2.3417084e-04  -2.2088702e-04  -2.2859918e-04   6.2343973e-04   2.1318777e-04  -1.2542134e-04   4.2580813e-04  -7.8175938e-05  -8.4112235e-04  -8.1124378e-04  -1.5986985e-04  -2.4906670e-05  -1.7223592e-04  -5.2627387e-04  -3.8454892e-04  -5.7347698e-04  -1.5239901e-04   6.0876407e-05   0.0000000e+00  -2.4311886e-05  -4.0961230e-04  -4.7027681e-04  -3.8760235e-04   5.4155743e-05  -2.3117989e-05  -7.2091371e-04   3.0435283e-04  -9.9276658e-05   6.4807508e-06  -1.3757879e-04  -1.8646298e-04   1.7182947e-06  -3.8639826e-04  -2.0531926e-04  -9.4833843e-05  -8.2119235e-07  -1.0980853e-04   1.7318017e-04   2.1733566e-04  -1.8969086e-04  -1.1569974e-04   2.6330117e-05  -1.3809199e-05   1.0211685e-05  -1.4500401e-05  -9.3966319e-05  -5.6536068e-04  -3.8983174e-05  -8.8935940e-07  -1.1429461e-04   1.9326516e-04   2.7503596e-04  -1.9728517e-04  -2.8898217e-04  -1.5367613e-04  -1.1581874e-04   0.0000000e+00  -1.2289518e-04   4.5996272e-05  -2.1608912e-04  -1.1270319e-04  -1.6034514e-04  -1.1886830e-04  -1.4097042e-04  -6.6068195e-05  -9.9789955e-05  -1.0648963e-04  -1.3422587e-05  -3.0405090e-04  -5.2328857e-05  -3.1318851e-04  -9.8874997e-05  -1.6644066e-04   2.0282714e-04  -9.3153380e-06   1.3199144e-05  -5.5656973e-05  -2.0402705e-04  -2.3277293e-04   3.3062705e-05   1.6035187e-06  -4.2409570e-04   4.1191004e-04   2.0646525e-04  -4.6256771e-05   2.0136509e-04  -3.5442205e-05   5.9590161e-05   1.8148178e-03   2.5423076e-03   3.8306166e-04   5.0869671e-04   3.2110337e-04   5.7840774e-05   0.0000000e+00   1.0404095e-03   1.3096790e-03   2.2610716e-04   1.6045650e-04   3.1070047e-05   1.1404870e-04   3.0920633e-04   1.4875618e-04   1.4817252e-04   9.9009942e-05   2.8076360e-04   1.8694388e-05   2.4856502e-04   3.2690875e-04   5.7703145e-04   1.8710825e-04   1.3954668e-03   1.3469929e-03   2.3185215e-04   4.0417982e-04  -3.0846278e-05   8.6975293e-05   9.5725183e-04   3.0574258e-04  -4.3417717e-04
   1.5825511e-04   3.6356573e-05   3.8935879e-05   3.0864804e-05   2.4529287e-05  -7.7872952e-06   6.3142794e-07  -3.6102752e-05  -3.2168524e-05  -5.1990726e-05  -3.4708447e-05  -4.7196856e-05   0.0000000e+00   4.6386613e-05  -2.7117639e-05  -1.6596194e-05  -2.5278591e-05  -4.4990440e-05  -3.6025405e-05  -1.5848089e-04   7.3993129e-05   6.9378289e-05   3.2284415e-05   1.1287094e-04   1.7972752e-04  -2.2269891e-05  -3.7764010e-05   3.4299708e-08  -1.9249537e-05  -3.5978074e-06  -1.2190559e-05   4.2601990e-05   5.5341126e-05  -1.5416147e-05   1.3877226e-05  -4.5360550e-06   6.8509773e-05   1.1145708e-04   1.6976932e-04  -1.6528886e-05  -3.8208781e-04  -2.9953942e-04  -1.2370374e-04  -3.8816741e-05  -4.9815479e-04  -4.4216468e-04  -1.2988574e-04  -3.0227766e-04  -2.0589034e-04  -1.3371668e-04   0.0000000e+00  -3.7817018e-04  -2.5078992e-04  -1.5888658e-04  -6.8162111e-05  -1.1852245e-04  -2.1029072e-04  -1.2589612e-04   1.9831470e-05  -8.3728779e-05  -6.7058253e-05  -7.9791863e-05  -5.8157065e-05   2.8548228e-05   9.3952137e-05   1.0934919e-04  -3.7130157e-05  -1.7307125e-04  -3.1885794e-04  -1.2688467e-04  -1.7825494e-04   1.4822663e-04   1.2243058e-05  -3.4836091e-04  -9.5610940e-06   1.8069752e-04  -2.1446419e-06  -1.2265160e-04  -1.6891067e-04  -1.1077819e-04  -1.5432804e-04  -2.7348173e-04   2.5833394e-05  -2.2234861e-05  -1.6057862e-04  -3.0085926e-04  -4.0311159e-04  -4.4267908e-04   0.0000000e+00  -1.5103587e-04  -5.9270048e-05  -1.3542042e-04  -3.4816684e-04  -3.1759250e-04  -4.6395986e-04  -5.5673323e-04  -4.9600630e-04  -2.0621107e-04  -2.6252924e-04  -1.3671839e-04  -1.4404685e-04  -4.3893390e-04  -3.8034637e-04  -2.6934818e-04  -7.1773970e-05   2.1781962e-06   1.7158295e-04  -3.5543425e-04  -4.3656716e-04  -6.6357188e-05  -8.0973206e-05  -7.4958978e-05   5.8921557e-05   3.2827358e-05   1.0573171e-04  -6.4014631e-05  -2.2324030e-04  -5.6722594e-05  -1.0826323e-05  -7.7837179e-05   1.7652690e-05  -5.5433078e-06  -1.7554703e-04  -2.8120725e-04  -1.4906919e-04  -1.0361492e-04   0.0000000e+00  -4.3286879e-06  -1.1904536e-04  -1.6946233e-04  -1.3350874e-04  -1.3304652e-04  -1.4181216e-04  -3.3075976e-04  -2.2989356e-05   3.1786140e-05  -9.1210145e-05   3.2169167e-05  -5.8011956e-06  -1.7369076e-04  -3.4698302e-04  -1.8550235e-04  -1.5381723e-04   1.8080837e-05  -8.8334745e-05  -7.0488026e-05  -6.2783819e-05  -1.8597199e-04  -1.2680583e-04  -6.3542520e-05  -4.3483997e-05  -1.5527007e-04   9.8094892e-05  -1.2237220e-05  -5.4811392e-04   1.0551053e-05  -4.4376818e-05  -1.8937995e-05  -3.1852703e-04  -3.4743069e-04  -1.5451129e-04  -2.9030025e-04   3.6157867e-05   1.2043964e-05   0.0000000e+00  -9.6546698e-05  -1.8934322e-04  -1.8242661e-04  -2.6239937e-05   9.8310704e-05   8.8471328e-08  -4.5842479e-04   1.7874361e-04  -8.8433535e-05  -6.7776048e-05  -7.0463980e-05  -2.2090269e-04  -1.3443656e-04  -2.1751895e-04  -1.1052950e-04  -1.4817914e-04  -1.1928132e-04  -1.3136007e-04   1.5415885e-05   1.1060862e-04  -1.7264716e-04  -1.0098639e-04  -1.2652845e-04  -2.9326016e-05   3.9526150e-04   1.6029710e-04  -9.4913962e-06  -2.7056769e-04   2.8872505e-05   1.1105787e-04   6.7124691e-06  -1.8587423e-04  -2.7522353e-04  -1.1787343e-04  -1.9987117e-04  -3.1860389e-05  -3.7224563e-05   0.0000000e+00  -2.0112828e-06  -1.4047113e-04  -1.3181178e-04  -1.3534975e-04  -3.8502454e-05  -4.6549677e-05  -2.8686947e-04   4.0786531e-05  -2.3686087e-05  -1.7324297e-05  -2.6184649e-06  -5.6373084e-05  -5.0962448e-05  -1.4302906e-04  -6.6713461e-05  -5.2123599e-06  -1.2909390e-04  -1.4638148e-05   1.0226772e-05   3.9662585e-05  -6.9853450e-05  -2.6017975e-05  -5.4936713e-05  -4.7029818e-05   4.8889630e-05  -2.3403781e-04   4.8312489e-05  -6.5826642e-04  -1.3018874e-04  -1.6151214e-04   6.2704078e-05  -2.9447090e-04  -5.2496138e-04  -4.5946117e-05  -1.7556286e-04   4.8220355e-05   2.4632309e-04   0.0000000e+00  -2.3662304e-04  -4.4742831e-04  -1.6618649e-04   1.6017286e-04   3.1716322e-05   8.3904677e-05   6.0769993e-05   2.8738116e-04   4.2166580e-05   1.0524165e-04   4.4126655e-05  -1.5439943e-04   1.9034992e-04   1.6899257e-04   6.5216817e-05  -7.4779862e-06  -1.1330145e-04  -2.3550994e-04   2.7471635e-04   2.5186636e-04   5.6569773e-05   5.8354016e-05  -4.9267163e-04  -4.0309890e-04  -1.6505703e-04   1.7923704e-04  -3.1646605e-06  -4.2951863e-04   8.9863221e-06   5.1064102e-05  -1.2943229e-05  -1.1766082e-04  -3.0935367e-04  -2.7489190e-04  -4.2246483e-04  -1.1925410e-04   1.7305909e-08   0.0000000e+00   1.2633339e-04  -3.3844359e-04  -2.4361353e-04  -1.4953693e-04  -8.1416779e-05  -2.4243778e-05  -5.6161150e-04  -5.1363521e-05  -5.1054870e-05  -1.1517913e-04  -1.2098024e-04  -1.4736561e-04  -2.6666032e-04  -4.8290663e-04  -3.3575440e-04  -1.6751673e-04  -2.0963014e-04  -2.1133688e-05  -1.2273868e-04  -5.9078244e-05  -2.4848165e-04  -1.2347870e-04  -1.5843086e-04  -6.5888319e-05  -1.6930728e-05  -1.8250282e-04  -1.0282257e-04  -2.0497999e-04  -2.0339889e-04  -9.4935297e-05  -3.0069272e-05  -4.8276196e-05  -1.2938604e-04  -2.9790695e-04  -2.2832340e-04  -8.9413958e-06   1.2817681e-05   0.0000000e+00  -1.8027085e-04  -8.0835276e-05  -2.3109733e-04  -1.0254179e-04  -1.5457829e-05  -3.7779451e-05  -1.0137335e-04  -8.2690928e-05  -7.9074426e-05  -3.9489153e-05  -1.2989569e-04  -2.1146621e-04   4.4824459e-05  -2.8383499e-04  -2.1302995e-04  -3.7589474e-04   6.5188500e-04   1.8532217e-04   3.2680630e-05  -2.2605799e-04  -2.4206459e-04  -2.4788691e-04   7.1082154e-04   2.1966188e-04  -1.7949263e-04   4.4380620e-04  -7.7157403e-05  -8.6111502e-04  -8.4502085e-04  -1.6746104e-04  -2.4546579e-05  -1.8341894e-04  -5.5943110e-04  -4.0725572e-04  -5.9691802e-04  -1.6480793e-04   6.1763148e-05   0.0000000e+00  -2.8680623e-05  -4.2463290e-04  -4.8980494e-04  -4.0956447e-04   5.1660641e-05  -2.3483550e-05  -7.4298253e-04   3.0839765e-04  -1.1381094e-04   7.6124965e-06  -1.5001350e-04  -2.1667075e-04  -7.7460927e-06  -3.9947295e-04  -2.1900342e-04  -9.9324530e-05  -1.5245238e-05  -1.1380633e-04   1.7528982e-04   2.1953947e-04  -2.0012654e-04  -1.2190840e-04   2.4565044e-05  -3.9401090e-05   4.4072353e-06  -2.6975582e-05  -8.8442271e-05  -6.0705375e-04  -5.5854737e-05  -9.7725397e-06  -1.1958827e-04   1.8721985e-04   2.9904280e-04  -1.8817903e-04  -2.9911904e-04  -1.5433198e-04  -1.1177992e-04   0.0000000e+00  -1.6591730e-04   4.7480751e-05  -2.1385560e-04  -1.1559985e-04  -1.5661678e-04  -1.1359624e-04  -1.4979424e-04  -6.6493519e-05  -1.2027668e-04  -1.0448518e-04  -2.5038015e-05  -3.6403418e-04  -5.3421149e-05  -3.0785638e-04  -1.0174061e-04  -1.7023428e-04   2.0555825e-04  -6.3060402e-06   2.1108847e-05  -4.3761866e-05  -2.0134365e-04  -2.3913285e-04   4.1371955e-05  -1.9626286e-05  -4.7617121e-04   3.8234060e-04   1.9498246e-04  -1.7669723e-05   2.2697834e-04  -1.7972005e-05   4.4287198e-05   1.8525840e-03   2.6538248e-03   3.9271336e-04   4.7588041e-04   2.9165285e-04   1.3466122e-05   0.0000000e+00   9.9603462e-04   1.3300521e-03   2.2709557e-04   1.3310879e-04   7.2102723e-06   8.9901750e-05   2.7484220e-04   1.1135991e-04   1.4260807e-04   8.3774574e-05   2.6019626e-04   2.1450506e-05   2.1468255e-04   3.0055636e-04   5.6246858e-04   1.7719289e-04   1.3748915e-03   1.3253802e-03   2.1717497e-04   3.9394949e-04  -4.3002782e-05   7.2575180e-05   9.4547610e-04   2.7242758e-04  -4.2947644e-04
   1.6332196e-04   3.5731318e-05   8.4013072e-06   2.7884151e-05   2.1193847e-05  -9.3584734e-06  -1.0998221e-05  -5.4798415e-05  -4.7909319e-05  -7.7999533e-05  -4.4578414e-05  -4.9628723e-05   0.0000000e+00   4.2884119e-05  -4.2999562e-05  -3.2362612e-05  -3.3603041e-05  -5.4440647e-05  -4.2394385e-05  -1.8387943e-04   7.5707268e-05   6.4585342e-05   2.8633505e-05   1.0922155e-04   1.6588576e-04  -2.8380255e-05  -5.2278377e-05  -8.6717248e-06  -3.1210591e-05  -1.1941200e-05  -1.9579636e-05   4.3462341e-05   5.6961415e-05  -2.5934031e-05   5.3112272e-06  -1.3578253e-05   6.1638215e-05   1.1840177e-04   1.4024438e-04  -3.1668789e-05  -4.3890586e-04  -3.1257868e-04  -1.5242510e-04  -6.5443348e-05  -4.9588267e-04  -4.7321856e-04  -1.4667008e-04  -3.4250864e-04  -2.2000185e-04  -1.6325256e-04   0.0000000e+00  -3.7597490e-04  -2.6825717e-04  -1.6580420e-04  -6.6082893e-05  -1.3910920e-04  -2.4159847e-04  -1.4750653e-04  -1.6886977e-05  -9.9815263e-05  -9.0388072e-05  -1.0247388e-04  -8.3953749e-05  -8.5217804e-07   7.7480191e-05   9.7936862e-05  -4.6856609e-05  -1.9425314e-04  -3.0800702e-04  -1.5535448e-04  -2.0204132e-04   1.4965953e-04   7.6651987e-06  -3.8411846e-04   2.2163285e-06   2.1394321e-04  -5.8373068e-06  -1.2366812e-04  -1.2406924e-04  -1.0240068e-04  -1.5334709e-04  -2.5854905e-04   3.4755435e-05   1.9076630e-05  -1.3279446e-04  -2.5927015e-04  -3.7659486e-04  -4.0854337e-04   0.0000000e+00  -1.7975989e-04  -1.6677552e-05  -9.7872968e-05  -3.1268079e-04  -3.0281652e-04  -4.5688114e-04  -4.8951965e-04  -4.9612004e-04  -2.0880661e-04  -2.5887561e-04  -1.3289738e-04  -1.4004636e-04  -4.1313937e-04  -3.6772174e-04  -2.7022980e-04  -7.7120111e-05   2.7314258e-05   1.7827529e-04  -3.4622199e-04  -4.5814069e-04  -5.7432855e-05  -8.2952179e-05  -6.8429301e-05   6.8018141e-05   3.3842543e-05   1.0123996e-04  -6.5943495e-05  -2.2471810e-04  -4.9727562e-05  -1.1616245e-05  -7.7325594e-05   8.9019538e-06  -9.8407107e-06  -1.7006128e-04  -2.7604767e-04  -1.5111894e-04  -9.6775020e-05   0.0000000e+00  -1.3780324e-05  -1.2106919e-04  -1.6912817e-04  -1.3487378e-04  -1.3405430e-04  -1.3950336e-04  -3.1748972e-04  -2.9564870e-05   2.6270496e-05  -9.6193096e-05   2.7546486e-05  -1.9079887e-05  -1.7355099e-04  -3.5265663e-04  -1.8787778e-04  -1.5737851e-04   1.2038483e-05  -9.5187944e-05  -7.2252688e-05  -7.1107318e-05  -1.8900203e-04  -1.3322097e-04  -6.5186631e-05  -5.7226205e-05  -1.7272468e-04   9.8917547e-05  -1.4653564e-05  -6.0997333e-04  -5.4920319e-06  -6.0059350e-05  -2.5755978e-05  -3.3379425e-04  -3.7306875e-04  -1.7154008e-04  -3.2110853e-04   2.4202140e-05   1.0711480e-05   0.0000000e+00  -1.0421804e-04  -1.9634272e-04  -1.9623231e-04  -2.5075445e-05   9.4269211e-05  -9.6339455e-06  -5.0224319e-04   2.0797421e-04  -9.8814717e-05  -8.3595172e-05  -7.8928954e-05  -2.5586840e-04  -1.5810427e-04  -2.5474519e-04  -1.4119375e-04  -1.6636511e-04  -1.2812567e-04  -1.3587416e-04   2.0611303e-05   1.1876075e-04  -2.0236677e-04  -1.1279245e-04  -1.4308775e-04  -4.8736622e-05   3.5888302e-04   1.7010397e-04  -9.0704885e-06  -2.9328329e-04   2.5405522e-05   1.0494048e-04   5.4719893e-06  -1.9838351e-04  -2.8706138e-04  -1.2578854e-04  -2.0677210e-04  -3.4418124e-05  -3.6165254e-05   0.0000000e+00  -2.4584661e-05  -1.5401541e-04  -1.3980666e-04  -1.4111389e-04  -4.5477253e-05  -5.3983550e-05  -2.8841821e-04   2.6432735e-05  -4.1405679e-05  -2.4028656e-05  -1.4342422e-05  -8.3855828e-05  -4.7183995e-05  -1.2886330e-04  -6.1262974e-05  -3.8063329e-06  -1.3441529e-04  -6.8472143e-06   4.0570670e-06   3.4015276e-05  -6.0253950e-05  -2.7533972e-05  -5.6638468e-05  -5.2307407e-05   4.2020760e-05  -2.8872683e-04   5.1447105e-05  -6.6157188e-04  -1.3140026e-04  -1.7760019e-04   6.5904284e-05  -2.9038646e-04  -5.3631925e-04  -1.0594318e-05  -1.3968606e-04   7.7479995e-05   2.6165083e-04   0.0000000e+00  -2.4900655e-04  -4.4679020e-04  -1.4282567e-04   1.9694486e-04   5.2809855e-05   9.9585375e-05   1.0340073e-04   2.9426793e-04   4.4628054e-05   1.0478784e-04   5.0007975e-05  -1.6634112e-04   1.8876412e-04   1.9736055e-04   7.7696880e-05   1.4935139e-05  -1.2637458e-04  -2.3599940e-04   2.7983890e-04   2.5822510e-04   6.6512234e-05   8.0952486e-05  -5.2802663e-04  -4.0662346e-04  -1.5127755e-04   1.8797398e-04  -3.0275048e-06  -4.5496432e-04   1.4579397e-05   7.1241565e-05  -2.3580634e-06  -1.1536175e-04  -3.1037175e-04  -2.8449728e-04  -4.3189505e-04  -1.2792510e-04   1.0247666e-05   0.0000000e+00   1.2458867e-04  -3.4244985e-04  -2.6215301e-04  -1.6454601e-04  -9.0372879e-05  -1.8302910e-05  -5.5198936e-04  -5.3525528e-05  -5.2537671e-05  -1.1473799e-04  -1.2750202e-04  -1.5250272e-04  -2.5056340e-04  -4.9453666e-04  -3.3985085e-04  -1.6694444e-04  -2.2582653e-04   7.4651620e-06  -1.2082253e-04  -6.6092175e-05  -2.4836529e-04  -1.2425536e-04  -1.5701570e-04  -5.7713776e-05  -4.5800897e-06  -1.8977656e-04  -1.1729680e-04  -2.1676469e-04  -2.0590186e-04  -9.0928746e-05  -2.7122951e-05  -4.3614199e-05  -1.1756519e-04  -3.0657796e-04  -2.5121850e-04  -1.5707149e-05   1.6849058e-05   0.0000000e+00  -1.6234928e-04  -9.1771398e-05  -2.4272635e-04  -1.1287272e-04  -4.5893360e-06  -2.9978650e-05  -1.1919623e-04  -6.7506147e-05  -8.2244208e-05  -3.9933546e-05  -1.4573546e-04  -2.1818427e-04   4.9135093e-05  -3.0670863e-04  -2.2759120e-04  -3.9660553e-04   7.2081397e-04   1.8661045e-04   4.1865235e-05  -2.1787425e-04  -2.6107915e-04  -2.6476652e-04   7.9736760e-04   2.2561146e-04  -2.3504862e-04   4.5864053e-04  -7.3799812e-05  -8.7208198e-04  -8.7162945e-04  -1.7499873e-04  -2.2630441e-05  -1.8670132e-04  -5.8762516e-04  -4.2787480e-04  -6.1250030e-04  -1.7369228e-04   6.4664341e-05   0.0000000e+00  -3.2323263e-05  -4.3693988e-04  -5.0311806e-04  -4.2624475e-04   5.1988821e-05  -2.1577140e-05  -7.5490820e-04   3.0860223e-04  -1.2870258e-04   7.9126993e-06  -1.6106783e-04  -2.4831061e-04  -1.6519039e-05  -4.0683019e-04  -2.3021670e-04  -1.0344451e-04  -3.0078333e-05  -1.1595687e-04   1.7526825e-04   2.1903455e-04  -2.0735668e-04  -1.2775692e-04   2.1288283e-05  -6.8723699e-05  -7.1698137e-06  -4.4839747e-05  -8.1173834e-05  -6.3277544e-04  -6.9433528e-05  -1.8132872e-05  -1.2232779e-04   1.7317544e-04   3.2037135e-04  -1.7142770e-04  -3.0181382e-04  -1.5260997e-04  -1.0589215e-04   0.0000000e+00  -2.1390392e-04   4.9825374e-05  -2.0457856e-04  -1.1568392e-04  -1.4920424e-04  -1.0423499e-04  -1.5401051e-04  -6.3558549e-05  -1.3779841e-04  -9.9881374e-05  -3.3743776e-05  -4.1908288e-04  -5.2634036e-05  -2.9747980e-04  -1.0328442e-04  -1.7162212e-04   2.0465015e-04  -2.1053729e-06   3.1079416e-05  -3.0722790e-05  -1.9675981e-04  -2.4215601e-04   4.8958878e-05  -4.2368823e-05  -5.2647543e-04   3.3863720e-04   1.7921496e-04   3.4071635e-05   2.6218762e-04  -9.9652061e-06   2.9529924e-05   1.8635667e-03   2.7292430e-03   4.1437370e-04   4.5877935e-04   2.7171272e-04  -2.4914462e-05   0.0000000e+00   9.2485835e-04   1.3394436e-03   2.3649260e-04   1.1991953e-04  -1.5768275e-05   6.6140950e-05   2.5659310e-04   6.9881925e-05   1.3516358e-04   7.3973787e-05   2.3892604e-04   2.5480441e-05   1.8308004e-04   2.8017460e-04   5.4554585e-04   1.6291567e-04   1.3358929e-03   1.2711637e-03   1.9607921e-04   3.7721109e-04  -5.0710531e-05   5.5319457e-05   9.1940134e-04   2.2823504e-04  -4.1341299e-04
   1.6565359e-04   3.4085135e-05  -2.5216043e-05   2.3220032e-05   1.6895196e-05  -1.1101538e-05  -2.2937773e-05  -7.4095226e-05  -6.4758221e-05  -1.0567596e-04  -5.4645437e-05  -5.1682684e-05   0.0000000e+00   3.8398696e-05  -6.0370936e-05  -4.9017011e-05  -4.1916593e-05  -6.3425655e-05  -4.8556999e-05  -2.0862481e-04   7.6047370e-05   5.8324288e-05   2.4029780e-05   1.0276740e-04   1.4822802e-04  -3.4778753e-05  -6.7214436e-05  -1.8022856e-05  -4.3723593e-05  -2.0334983e-05  -2.7662457e-05   4.3216498e-05   5.7713332e-05  -3.6697050e-05  -4.0278437e-06  -2.3004056e-05   5.3213226e-05   1.2461499e-04   9.8062771e-05  -4.8520247e-05  -4.8460745e-04  -3.1663952e-04  -1.8024014e-04  -9.4007286e-05  -4.8776182e-04  -5.0039421e-04  -1.5772788e-04  -3.7560384e-04  -2.3025727e-04  -1.9268365e-04   0.0000000e+00  -3.7374521e-04  -2.8099332e-04  -1.6794108e-04  -6.1314816e-05  -1.5942953e-04  -2.7029049e-04  -1.6465893e-04  -5.9588407e-05  -1.1462248e-04  -1.1245265e-04  -1.2460773e-04  -1.0688468e-04  -3.1432935e-05   6.0919784e-05   8.6659117e-05  -5.5086812e-05  -2.1585184e-04  -2.9200312e-04  -1.8305331e-04  -2.2551341e-04   1.4985752e-04   3.3534544e-06  -4.1753361e-04   1.4046080e-05   2.4858873e-04  -8.9761112e-06  -1.2224342e-04  -7.0081371e-05  -9.3633530e-05  -1.5224644e-04  -2.3922403e-04   4.7407947e-05   6.3783838e-05  -9.7729334e-05  -2.1070142e-04  -3.4289507e-04  -3.6584242e-04   0.0000000e+00  -2.0792052e-04   2.9465349e-05  -5.5800020e-05  -2.6728135e-04  -2.8055487e-04  -4.4202224e-04  -4.1126316e-04  -4.8523717e-04  -2.0760472e-04  -2.5145516e-04  -1.2649698e-04  -1.3451282e-04  -3.8043691e-04  -3.4671599e-04  -2.6910100e-04  -8.3131594e-05   5.5830249e-05   1.7646137e-04  -3.3009513e-04  -4.7044617e-04  -4.7034533e-05  -8.4805947e-05  -6.0244300e-05   7.7277088e-05   3.4183538e-05   9.4722990e-05  -6.6826344e-05  -2.2045530e-04  -4.1895093e-05  -1.2960511e-05  -7.5628736e-05   1.4496322e-06  -1.0599946e-05  -1.6071161e-04  -2.6405318e-04  -1.5012894e-04  -8.7818441e-05   0.0000000e+00  -2.1964571e-05  -1.1961952e-04  -1.6488367e-04  -1.3260993e-04  -1.3190440e-04  -1.3406868e-04  -2.9639525e-04  -3.5473164e-05   2.0431928e-05  -9.9832060e-05   2.2431467e-05  -3.2721360e-05  -1.7039318e-04  -3.5286824e-04  -1.8756355e-04  -1.5949924e-04   7.4321770e-06  -1.0121146e-04  -7.2955330e-05  -7.8774163e-05  -1.8959067e-04  -1.3842171e-04  -6.5296393e-05  -6.9861030e-05  -1.8832623e-04   9.8451111e-05  -1.6743311e-05  -6.6382060e-04  -2.1723962e-05  -7.5571339e-05  -3.2280162e-05  -3.4298030e-04  -3.9377054e-04  -1.8570800e-04  -3.4812350e-04   9.9134096e-06   9.1371335e-06   0.0000000e+00  -1.0573151e-04  -1.9710755e-04  -2.0812845e-04  -2.3207944e-05   8.7447811e-05  -1.9837812e-05  -5.3862201e-04   2.3633806e-04  -1.0826490e-04  -9.9360923e-05  -8.7190290e-05  -2.9006189e-04  -1.8078590e-04  -2.9024627e-04  -1.7220158e-04  -1.8331133e-04  -1.3612694e-04  -1.3592371e-04   2.5272038e-05   1.2425830e-04  -2.3097446e-04  -1.2314172e-04  -1.5757432e-04  -6.8673819e-05   3.1297216e-04   1.7766005e-04  -8.8584756e-06  -3.1171761e-04   1.9786996e-05   9.6704719e-05   4.2109049e-06  -2.0567051e-04  -2.9156584e-04  -1.3232241e-04  -2.0987088e-04  -3.6042212e-05  -3.4144575e-05   0.0000000e+00  -4.4112164e-05  -1.6498486e-04  -1.4542443e-04  -1.4388271e-04  -5.1455080e-05  -6.0188288e-05  -2.8535281e-04   1.1394487e-05  -5.9272559e-05  -3.0408678e-05  -2.7016505e-05  -1.1051550e-04  -4.2761405e-05  -1.1183360e-04  -5.4728051e-05  -2.6382609e-06  -1.3632823e-04   9.0896766e-07  -2.2324662e-06   2.8304250e-05  -4.9615710e-05  -2.8846318e-05  -5.6144299e-05  -5.5358355e-05   3.4952981e-05  -3.4459917e-04   5.3056351e-05  -6.4712751e-04  -1.2828659e-04  -1.8960854e-04   7.0896064e-05  -2.7836065e-04  -5.3377065e-04   2.6843542e-05  -9.7389828e-05   1.1016699e-04   2.7543175e-04   0.0000000e+00  -2.5607557e-04  -4.3789531e-04  -1.1372141e-04   2.3215285e-04   7.8435816e-05   1.1717858e-04   1.4986920e-04   2.9718205e-04   4.8447302e-05   1.0458537e-04   5.7835981e-05  -1.7153736e-04   1.8925163e-04   2.2908703e-04   9.3261230e-05   4.0690357e-05  -1.3501184e-04  -2.2888027e-04   2.8257992e-04   2.6348537e-04   7.8717489e-05   1.0506716e-04  -5.5630499e-04  -3.9751825e-04  -1.2000168e-04   1.9673176e-04  -2.4638977e-06  -4.7649178e-04   2.0301021e-05   9.2007878e-05   8.2256349e-06  -1.0968636e-04  -3.0566075e-04  -2.9043739e-04  -4.3489305e-04  -1.3598030e-04   2.0089341e-05   0.0000000e+00   1.2011939e-04  -3.4064706e-04  -2.7812212e-04  -1.7911372e-04  -9.9233623e-05  -1.2619474e-05  -5.3299640e-04  -5.5665085e-05  -5.3943224e-05  -1.1317596e-04  -1.3268303e-04  -1.5652114e-04  -2.3038795e-04  -4.9901921e-04  -3.3887035e-04  -1.6358818e-04  -2.4186722e-04   3.8048161e-05  -1.1685281e-04  -7.1969261e-05  -2.4450733e-04  -1.2377179e-04  -1.5469744e-04  -5.2782575e-05   1.8054641e-06  -1.9759352e-04  -1.3107402e-04  -2.2708654e-04  -2.0653965e-04  -8.7853898e-05  -2.4370049e-05  -4.2319163e-05  -1.0810532e-04  -3.1088261e-04  -2.7080856e-04  -2.3228597e-05   2.0236117e-05   0.0000000e+00  -1.4723622e-04  -1.0231068e-04  -2.5113660e-04  -1.2235108e-04   4.6505516e-06  -2.2551014e-05  -1.3279856e-04  -5.3732393e-05  -8.5455060e-05  -4.0208030e-05  -1.6178072e-04  -2.2304997e-04   5.2778129e-05  -3.2735309e-04  -2.4065287e-04  -4.1293045e-04   7.8520754e-04   1.8956452e-04   5.0241083e-05  -2.1039515e-04  -2.7692375e-04  -2.7844084e-04   8.8117686e-04   2.3181168e-04  -2.9007733e-04   4.7086138e-04  -6.8127481e-05  -8.7469063e-04  -8.9143513e-04  -1.8240683e-04  -1.9029759e-05  -1.8212273e-04  -6.1126883e-04  -4.4624979e-04  -6.2016420e-04  -1.7874040e-04   7.0158774e-05   0.0000000e+00  -3.5210574e-05  -4.4714695e-04  -5.1027272e-04  -4.3736109e-04   5.5904518e-05  -1.6779197e-05  -7.5682623e-04   3.0552327e-04  -1.4330829e-04   7.4490216e-06  -1.7027532e-04  -2.8043039e-04  -2.4235996e-05  -4.0855655e-04  -2.3881343e-04  -1.0715317e-04  -4.4794592e-05  -1.1615393e-04   1.7350260e-04   2.1636247e-04  -2.1127908e-04  -1.3315065e-04   1.6580549e-05  -1.0122084e-04  -2.5364284e-05  -6.7566068e-05  -7.2050281e-05  -6.4017242e-04  -7.8285438e-05  -2.5144132e-05  -1.2197770e-04   1.5264893e-04   3.3902333e-04  -1.4663861e-04  -2.9580383e-04  -1.4838892e-04  -9.7986788e-05   0.0000000e+00  -2.6499962e-04   5.3594204e-05  -1.8765041e-04  -1.1233041e-04  -1.3802245e-04  -9.0683427e-05  -1.5203086e-04  -5.6806960e-05  -1.5090146e-04  -9.2789502e-05  -3.8063237e-05  -4.6677777e-04  -4.9455378e-05  -2.8198201e-04  -1.0314404e-04  -1.7020804e-04   2.0016759e-04   3.3270644e-06   4.3297574e-05  -1.6938568e-05  -1.9027142e-04  -2.4164100e-04   5.5326013e-05  -6.5501913e-05  -5.7327072e-04   2.8411518e-04   1.6090329e-04   1.0364540e-04   3.0356118e-04  -1.2314329e-05   1.6255158e-05   1.8555879e-03   2.7747163e-03   4.4797404e-04   4.5858957e-04   2.6284152e-04  -5.5292678e-05   0.0000000e+00   8.3560569e-04   1.3428345e-03   2.5440118e-04   1.2262469e-04  -3.6459530e-05   4.4155065e-05   2.5651700e-04   2.7103305e-05   1.2627604e-04   6.9427419e-05   2.1745950e-04   2.8912204e-05   1.5508348e-04   2.6744722e-04   5.2776369e-04   1.4448793e-04   1.2846299e-03   1.1915706e-03   1.7001035e-04   3.5507856e-04  -5.3940966e-05   3.5783805e-05   8.8317682e-04   1.7714815e-04  -3.8863620e-04
   1.6520031e-04   3.1402117e-05  -6.1160939e-05   1.6864569e-05   1.1699425e-05  -1.3072481e-05  -3.4880416e-05  -9.3631625e-05  -8.2334393e-05  -1.3449410e-04  -6.4793687e-05  -5.3458232e-05   0.0000000e+00   3.3098169e-05  -7.8878230e-05  -6.6186212e-05  -5.0098571e-05  -7.1869857e-05  -5.4487827e-05  -2.3231006e-04   7.4901573e-05   5.0730478e-05   1.8504390e-05   9.3542815e-05   1.2717827e-04  -4.1495164e-05  -8.2352812e-05  -2.7904536e-05  -5.6508701e-05  -2.8633476e-05  -3.6172849e-05   4.1745510e-05   5.7445423e-05  -4.7446628e-05  -1.3897802e-05  -3.2474823e-05   4.3524720e-05   1.2979732e-04   4.3497280e-05  -6.6629757e-05  -5.1612821e-04  -3.1051444e-04  -2.0588136e-04  -1.2352350e-04  -4.7497842e-04  -5.2282145e-04  -1.6136812e-04  -3.9946328e-04  -2.3620958e-04  -2.2104140e-04   0.0000000e+00  -3.7295235e-04  -2.8800166e-04  -1.6462808e-04  -5.3683728e-05  -1.7877329e-04  -2.9510385e-04  -1.7572248e-04  -1.0694393e-04  -1.2750765e-04  -1.3216150e-04  -1.4524664e-04  -1.2598775e-04  -6.1581060e-05   4.5593645e-05   7.6602976e-05  -6.1168565e-05  -2.3730025e-04  -2.7195587e-04  -2.0877328e-04  -2.4793723e-04   1.4914474e-04  -3.6743124e-07  -4.4765715e-04   2.5035392e-05   2.8278166e-04  -1.1242747e-05  -1.1881142e-04  -1.1555547e-05  -8.5300201e-05  -1.5131984e-04  -2.1694584e-04   6.3642209e-05   1.0892173e-04  -5.7889318e-05  -1.5917857e-04  -3.0396186e-04  -3.1761155e-04   0.0000000e+00  -2.3325861e-04   7.6180081e-05  -1.2247054e-05  -2.1461389e-04  -2.5187638e-04  -4.2067397e-04  -3.2810767e-04  -4.6386023e-04  -2.0288415e-04  -2.4076483e-04  -1.1782966e-04  -1.2781862e-04  -3.4266358e-04  -3.1938585e-04  -2.6635732e-04  -8.9337870e-05   8.6227425e-05   1.6655475e-04  -3.0773583e-04  -4.7223809e-04  -3.6058776e-05  -8.6398946e-05  -5.0739178e-05   8.7049114e-05   3.4919748e-05   8.6473081e-05  -6.6701259e-05  -2.1076495e-04  -3.3716187e-05  -1.4838267e-05  -7.2869299e-05  -4.2611752e-06  -7.4236614e-06  -1.4798867e-04  -2.4585143e-04  -1.4619202e-04  -7.7157272e-05   0.0000000e+00  -2.8429922e-05  -1.1473066e-04  -1.5698066e-04  -1.2679343e-04  -1.2666824e-04  -1.2576042e-04  -2.6835594e-04  -4.0401992e-05   1.4578907e-05  -1.0206970e-04   1.7073562e-05  -4.6071749e-05  -1.6438367e-04  -3.4799466e-04  -1.8476128e-04  -1.6026876e-04   4.6276370e-06  -1.0636593e-04  -7.2609542e-05  -8.5583707e-05  -1.8791088e-04  -1.4235474e-04  -6.4002782e-05  -8.0707737e-05  -2.0144945e-04   9.6376417e-05  -1.8694720e-05  -7.0822791e-04  -3.7682730e-05  -9.0343401e-05  -3.8292648e-05  -3.4637906e-04  -4.0892494e-04  -1.9655477e-04  -3.7096234e-04  -6.2252236e-06   7.2487354e-06   0.0000000e+00  -1.0041491e-04  -1.9119820e-04  -2.1817727e-04  -2.1173262e-05   7.8154309e-05  -3.0225949e-05  -5.6688044e-04   2.6247030e-04  -1.1687150e-04  -1.1458522e-04  -9.5600993e-05  -3.2307955e-04  -2.0199879e-04  -3.2306560e-04  -2.0266792e-04  -1.9857845e-04  -1.4328752e-04  -1.3115724e-04   2.8844554e-05   1.2654467e-04  -2.5757230e-04  -1.3181149e-04  -1.6929796e-04  -8.8286092e-05   2.5978272e-04   1.8295679e-04  -8.9740828e-06  -3.2546519e-04   1.2056150e-05   8.6841594e-05   2.9844438e-06  -2.0745073e-04  -2.8860979e-04  -1.3757329e-04  -2.0922655e-04  -3.6673504e-05  -3.1257481e-05   0.0000000e+00  -5.9605951e-05  -1.7308623e-04  -1.4864834e-04  -1.4367925e-04  -5.6247231e-05  -6.4937881e-05  -2.7818015e-04  -3.6362313e-06  -7.6501890e-05  -3.6277824e-05  -4.0132050e-05  -1.3516256e-04  -3.8093734e-05  -9.3022222e-05  -4.7611320e-05  -1.8843398e-06  -1.3472096e-04   8.1785666e-06  -8.3968301e-06   2.2797411e-05  -3.8681092e-05  -3.0001088e-05  -5.3357028e-05  -5.5947592e-05   2.8036925e-05  -3.9978160e-04   5.3012576e-05  -6.1508993e-04  -1.2050508e-04  -1.9667878e-04   7.7862951e-05  -2.5817982e-04  -5.1690516e-04   6.4950591e-05  -4.9967387e-05   1.4554684e-04   2.8764678e-04   0.0000000e+00  -2.5697476e-04  -4.2175432e-04  -7.9772860e-05   2.6482500e-04   1.0828938e-04   1.3659310e-04   1.9847852e-04   2.9664417e-04   5.3903038e-05   1.0509238e-04   6.7762826e-05  -1.6917796e-04   1.9248442e-04   2.6353644e-04   1.1182586e-04   6.9215375e-05  -1.3817158e-04  -2.1446828e-04   2.8357779e-04   2.6865392e-04   9.2941402e-05   1.3004820e-04  -5.7709255e-04  -3.7607617e-04  -7.1673363e-05   2.0536202e-04  -1.4816954e-06  -4.9415068e-04   2.6119488e-05   1.1258067e-04   1.8357304e-05  -1.0044274e-04  -2.9546014e-04  -2.9260239e-04  -4.3157740e-04  -1.4291018e-04   2.9363381e-05   0.0000000e+00   1.1350340e-04  -3.3314682e-04  -2.9099837e-04  -1.9250590e-04  -1.0731441e-04  -7.2416162e-06  -5.0569645e-04  -5.7508720e-05  -5.5495388e-05  -1.1075022e-04  -1.3661192e-04  -1.5980517e-04  -2.0714454e-04  -4.9663800e-04  -3.3324819e-04  -1.5768657e-04  -2.5743025e-04   6.9379763e-05  -1.1100937e-04  -7.6302953e-05  -2.3729222e-04  -1.2227871e-04  -1.5163119e-04  -5.2022400e-05   7.5863115e-07  -2.0642720e-04  -1.4370572e-04  -2.3530150e-04  -2.0532027e-04  -8.5845888e-05  -2.1492875e-05  -4.4396940e-05  -1.0132519e-04  -3.1051410e-04  -2.8568956e-04  -3.0257647e-05   2.3567282e-05   0.0000000e+00  -1.3615605e-04  -1.1176134e-04  -2.5570901e-04  -1.3021108e-04   1.2888784e-05  -1.4962503e-05  -1.4029700e-04  -4.1909245e-05  -8.8419827e-05  -3.9985457e-05  -1.7734017e-04  -2.2538120e-04   5.6565301e-05  -3.4427550e-04  -2.5148597e-04  -4.2423920e-04   8.4337854e-04   1.9516771e-04   5.7938700e-05  -2.0404153e-04  -2.8867315e-04  -2.8817376e-04   9.6050791e-04   2.3904951e-04  -3.4266918e-04   4.8105018e-04  -6.0290033e-05  -8.6960647e-04  -9.0489005e-04  -1.8952475e-04  -1.3723138e-05  -1.7047884e-04  -6.3103083e-04  -4.6219117e-04  -6.2013620e-04  -1.7990750e-04   7.8616430e-05   0.0000000e+00  -3.7417671e-05  -4.5589409e-04  -5.1156317e-04  -4.4284983e-04   6.3921355e-05  -8.6100663e-06  -7.4924987e-04   2.9976300e-04  -1.5693125e-04   6.3597817e-06  -1.7724149e-04  -3.1192485e-04  -3.0705188e-05  -4.0503322e-04  -2.4480497e-04  -1.1041664e-04  -5.8923154e-05  -1.1439063e-04   1.7038823e-04   2.1209412e-04  -2.1199864e-04  -1.3797619e-04   1.0626263e-05  -1.3620141e-04  -5.0614651e-05  -9.4293041e-05  -6.0930446e-05  -6.2763324e-04  -8.1200603e-05  -2.9994253e-05  -1.1809464e-04   1.2782078e-04   3.5531143e-04  -1.1368550e-04  -2.8003736e-04  -1.4153897e-04  -8.7877064e-05   0.0000000e+00  -3.1698951e-04   5.9365279e-05  -1.6269938e-04  -1.0499108e-04  -1.2307326e-04  -7.2952637e-05  -1.4234792e-04  -4.5983215e-05  -1.5831341e-04  -8.3381958e-05  -3.6656565e-05  -5.0499195e-04  -4.3420752e-05  -2.6128148e-04  -1.0087346e-04  -1.6556551e-04   1.9239671e-04   9.9555928e-06   5.7843494e-05  -2.7373468e-06  -1.8177711e-04  -2.3743734e-04   6.0096575e-05  -8.7687885e-05  -6.1454241e-04   2.2266289e-04   1.4181029e-04   1.8439233e-04   3.4701576e-04  -2.5018973e-05   5.1966081e-06   1.8373607e-03   2.7980961e-03   4.9233224e-04   4.7476918e-04   2.6548333e-04  -7.6435987e-05   0.0000000e+00   7.3795698e-04   1.3449884e-03   2.8012950e-04   1.4157437e-04  -5.3657223e-05   2.5050234e-05   2.7485235e-04  -1.4245386e-05   1.1642103e-04   6.9444699e-05   1.9609554e-04   2.9968040e-05   1.3155444e-04   2.6318511e-04   5.1033455e-04   1.2235372e-04   1.2273102e-03   1.0951163e-03   1.4063307e-04   3.2879601e-04  -5.3039781e-05   1.4671505e-05   8.4106839e-04   1.2359094e-04  -3.5791734e-04
   1.6200249e-04   2.7706245e-05  -9.8547031e-05   8.9021186e-06   5.7086121e-06  -1.5324208e-05  -4.6535219e-05  -1.1300172e-04  -1.0018547e-04  -1.6382226e-04  -7.4906397e-05  -5.5067745e-05   0.0000000e+00   2.7182481e-05  -9.8046508e-05  -8.3461649e-05  -5.8042708e-05  -7.9740263e-05  -6.0183452e-05  -2.5452298e-04   7.2189866e-05   4.1974132e-05   1.2113402e-05   8.1688301e-05   1.0326074e-04  -4.8551584e-05  -9.7458253e-05  -3.8184579e-05  -6.9270809e-05  -3.6708051e-05  -4.4784811e-05   3.8969668e-05   5.6013254e-05  -5.7927974e-05  -2.4040546e-05  -4.1639959e-05   3.2913675e-05   1.3359978e-04  -2.2555169e-05  -8.5461403e-05  -5.3098407e-04  -2.9337574e-04  -2.2813942e-04  -1.5294379e-04  -4.5876928e-04  -5.3965107e-04  -1.5616950e-04  -4.1229965e-04  -2.3753701e-04  -2.4736806e-04   0.0000000e+00  -3.7491360e-04  -2.8842480e-04  -1.5537145e-04  -4.3050465e-05  -1.9641111e-04  -3.1489655e-04  -1.7926313e-04  -1.5731500e-04  -1.3789740e-04  -1.4852819e-04  -1.6345338e-04  -1.4051996e-04  -8.9656222e-05   3.2756227e-05   6.8813707e-05  -6.4537167e-05  -2.5791677e-04  -2.4913298e-04  -2.3136545e-04  -2.6853618e-04   1.4784532e-04  -3.2022939e-06  -4.7357741e-04   3.4366115e-05   3.1456420e-04  -1.2270141e-05  -1.1393099e-04   4.5883656e-05  -7.8067171e-05  -1.5066483e-04  -1.9329104e-04   8.2999254e-05   1.5114719e-04  -1.6382163e-05  -1.0918836e-04  -2.6189122e-04  -2.6729385e-04   0.0000000e+00  -2.5339983e-04   1.2018731e-04   2.9388638e-05  -1.5790071e-04  -2.1815110e-04  -3.9437947e-04  -2.4688225e-04  -4.3301105e-04  -1.9510294e-04  -2.2737115e-04  -1.0726043e-04  -1.2027095e-04  -3.0181629e-04  -2.8822834e-04  -2.6223567e-04  -9.5018734e-05   1.1674512e-04   1.4995618e-04  -2.8005086e-04  -4.6259297e-04  -2.5425050e-05  -8.7419122e-05  -4.0234543e-05   9.7842924e-05   3.7423842e-05   7.6830320e-05  -6.5653364e-05  -1.9619178e-04  -2.5673493e-05  -1.7182858e-05  -6.9212548e-05  -7.9373126e-06  -1.9531771e-07  -1.3252888e-04  -2.2235573e-04  -1.3953717e-04  -6.5284830e-05   0.0000000e+00  -3.2856065e-05  -1.0662618e-04  -1.4583774e-04  -1.1767885e-04  -1.1855490e-04  -1.1496996e-04  -2.3456089e-04  -4.4104394e-05   9.0114966e-06  -1.0290125e-04   1.1717636e-05  -5.8456537e-05  -1.5579021e-04  -3.3860170e-04  -1.7974991e-04  -1.5979278e-04   3.8492187e-06  -1.1065526e-04  -7.1272430e-05  -9.1375895e-05  -1.8419886e-04  -1.4499627e-04  -6.1529739e-05  -8.9177908e-05  -2.1153882e-04   9.2342702e-05  -2.0756665e-05  -7.4216453e-04  -5.2932983e-05  -1.0383652e-04  -4.3604850e-05  -3.4461895e-04  -4.1810152e-04  -2.0373786e-04  -3.8945907e-04  -2.3616222e-05   4.9696409e-06   0.0000000e+00  -8.7958971e-05  -1.7844244e-04  -2.2651748e-04  -1.9572026e-05   6.6856919e-05  -4.0495767e-05  -5.8676471e-04   2.8510088e-04  -1.2477197e-04  -1.2877601e-04  -1.0453395e-04  -3.5451755e-04  -2.2134597e-04  -3.5241589e-04  -2.3173623e-04  -2.1179589e-04  -1.4961660e-04  -1.2146190e-04   3.0824784e-05   1.2522802e-04  -2.8137477e-04  -1.3865767e-04  -1.7767169e-04  -1.0675634e-04   2.0174208e-04   1.8614104e-04  -9.5159439e-06  -3.3432158e-04   2.3709853e-06   7.5926030e-05   1.8508453e-06  -2.0372199e-04  -2.7839418e-04  -1.4169034e-04  -2.0507496e-04  -3.6317446e-05  -2.7636662e-05   0.0000000e+00  -7.0347563e-05  -1.7813840e-04  -1.4958641e-04  -1.4068782e-04  -5.9739059e-05  -6.8089950e-05  -2.6755834e-04  -1.7985335e-05  -9.2336984e-05  -4.1487179e-05  -5.3148566e-05  -1.5671430e-04  -3.3583580e-05  -7.3609677e-05  -4.0454954e-05  -1.7026610e-06  -1.2965163e-04   1.4558129e-05  -1.4206817e-05   1.7713296e-05  -2.8202111e-05  -3.1051246e-05  -4.8289997e-05  -5.3959962e-05   2.1549401e-05  -4.5236784e-04   5.1297896e-05  -5.6637611e-04  -1.0790601e-04  -1.9817913e-04   8.6839137e-05  -2.2993344e-04  -4.8599161e-04   1.0236946e-04   1.1022683e-06   1.8269662e-04   2.9828906e-04   0.0000000e+00  -2.5101765e-04  -3.9968296e-04  -4.2077794e-05   2.9415193e-04   1.4177721e-04   1.5761155e-04   2.4737429e-04   2.9340179e-04   6.1187885e-05   1.0669844e-04   7.9823437e-05  -1.5884493e-04   1.9885412e-04   2.9981491e-04   1.3310083e-04   9.9829908e-05  -1.3506359e-04  -1.9351491e-04   2.8353850e-04   2.7473676e-04   1.0876791e-04   1.5521588e-04  -5.9031473e-04  -3.4320682e-04  -7.8339841e-06   2.1369602e-04  -1.0894053e-07  -5.0810870e-04   3.2005695e-05   1.3220671e-04   2.7665909e-05  -8.7591575e-05  -2.8030459e-04  -2.9104315e-04  -4.2234761e-04  -1.4815709e-04   3.7989215e-05   0.0000000e+00   1.0544861e-04  -3.2035098e-04  -3.0036095e-04  -2.0400612e-04  -1.1386411e-04  -2.1303568e-06  -4.7151008e-04  -5.8763775e-05  -5.7401349e-05  -1.0773017e-04  -1.3943736e-04  -1.6271925e-04  -1.8190750e-04  -4.8795819e-04  -3.2359969e-04  -1.4954966e-04  -2.7217996e-04   1.0015998e-04  -1.0354486e-04  -7.8737108e-05  -2.2719864e-04  -1.2001622e-04  -1.4796027e-04  -5.5996250e-05  -8.5645372e-06  -2.1655444e-04  -1.5475660e-04  -2.4074131e-04  -2.0218320e-04  -8.4813157e-05  -1.8044359e-05  -4.9525547e-05  -9.7195705e-05  -3.0533892e-04  -2.9465181e-04  -3.5414945e-05   2.7597422e-05   0.0000000e+00  -1.2983756e-04  -1.1945057e-04  -2.5596207e-04  -1.3568803e-04   2.1056889e-05  -6.4441026e-06  -1.4009288e-04  -3.2189665e-05  -9.0764924e-05  -3.8830178e-05  -1.9163475e-04  -2.2442358e-04   6.1441204e-05  -3.5601984e-04  -2.5937950e-04  -4.3001364e-04   8.9397805e-04   2.0409464e-04   6.5313635e-05  -1.9883792e-04  -2.9555180e-04  -2.9333863e-04   1.0338719e-03   2.4802111e-04  -3.9113673e-04   4.8975814e-04  -5.0569152e-05  -8.5745990e-04  -9.1249381e-04  -1.9610855e-04  -6.8043895e-06  -1.5327398e-04  -6.4777798e-04  -4.7548971e-04  -6.1291763e-04  -1.7741366e-04   9.0152850e-05   0.0000000e+00  -3.9109382e-05  -4.6381020e-04  -5.0750584e-04  -4.4287881e-04   7.6268271e-05   3.2138523e-06  -7.3307519e-04   2.9192816e-04  -1.6887537e-04   4.8436623e-06  -1.8168947e-04  -3.4159525e-04  -3.5925002e-05  -3.9692766e-04  -2.4835697e-04  -1.1322888e-04  -7.2074911e-05  -1.1077083e-04   1.6628744e-04   2.0677047e-04  -2.0982294e-04  -1.4211590e-04   3.6976768e-06  -1.7285328e-04  -8.2851571e-05  -1.2390168e-04  -4.7666271e-05  -5.9436397e-04  -7.7267797e-05  -3.1936919e-05  -1.1037063e-04   1.0135493e-04   3.6983896e-04  -7.2718312e-05  -2.5373994e-04  -1.3194027e-04  -7.5388777e-05   0.0000000e+00  -3.6743666e-04   6.7685993e-05  -1.2963546e-04  -9.3251363e-05  -1.0446107e-04  -5.1171970e-05  -1.2365612e-04  -3.1061167e-05  -1.5902952e-04  -7.1886101e-05  -2.8419935e-05  -5.3197156e-04  -3.4146849e-05  -2.3531760e-04  -9.5968915e-05  -1.5726429e-04   1.8185970e-04   1.7678498e-05   7.4673768e-05   1.1635412e-05  -1.7109928e-04  -2.2945570e-04   6.3059347e-05  -1.0744802e-04  -6.4810027e-04   1.5840332e-04   1.2357296e-04   2.6894977e-04   3.8824565e-04  -4.7226476e-05  -3.1627942e-06   1.8174643e-03   2.8078635e-03   5.4526843e-04   5.0520366e-04   2.7902029e-04  -8.7921558e-05   0.0000000e+00   6.4152039e-04   1.3499719e-03   3.1225850e-04   1.7576990e-04  -6.6435443e-05   9.5849896e-06   3.1008352e-04  -5.1692697e-05   1.0609717e-04   7.2942587e-05   1.7496579e-04   2.7168128e-05   1.1290832e-04   2.6733524e-04   4.9414876e-04   9.7165886e-05   1.1696444e-03   9.9071245e-04   1.0970837e-04   2.9965969e-04  -4.8681772e-05  -7.2319599e-06   7.9707298e-04   7.1980007e-05  -3.2386487e-04
   1.5618660e-04   2.3064913e-05  -1.3636930e-04  -4.8954179e-07  -9.4043531e-07  -1.7898395e-05  -5.7627725e-05  -1.3175123e-04  -1.1779852e-04  -1.9292826e-04  -8.4856894e-05  -5.6624542e-05   0.0000000e+00   2.0876120e-05  -1.1728945e-04  -1.0040366e-04  -6.5649137e-05  -8.7031635e-05  -6.5650608e-05  -2.7484024e-04   6.7873515e-05   3.2261051e-05   4.9443291e-06   6.7453144e-05   7.7086917e-05  -5.5950406e-05  -1.1227657e-04  -4.8707313e-05  -8.1705416e-05  -4.4440612e-05  -5.3131185e-05   3.4858518e-05   5.3294034e-05  -6.7895385e-05  -3.4191799e-05  -5.0154476e-05   2.1757329e-05   1.3565299e-04  -9.8629591e-05  -1.0442538e-04  -5.2743087e-04  -2.6483297e-04  -2.4593195e-04  -1.8122515e-04  -4.4033743e-04  -5.5010091e-04  -1.4109259e-04  -4.1275511e-04  -2.3406893e-04  -2.7079640e-04   0.0000000e+00  -3.8070927e-04  -2.8160969e-04  -1.3989672e-04  -2.9319509e-05  -2.1164732e-04  -3.2871700e-04  -1.7414241e-04  -2.0885278e-04  -1.4531351e-04  -1.6073279e-04  -1.7835926e-04  -1.4997993e-04  -1.1409932e-04   2.3522326e-05   6.4222842e-05  -6.4761976e-05  -2.7694818e-04  -2.2489186e-04  -2.4981859e-04  -2.8654060e-04   1.4625987e-04  -4.9003019e-06  -4.9446035e-04   4.1370712e-05   3.4202761e-04  -1.1650768e-05  -1.0822557e-04   9.5946523e-05  -7.2377867e-05  -1.5013112e-04  -1.6986575e-04   1.0471624e-04   1.8692762e-04   2.3288570e-05  -6.5335511e-05  -2.1880216e-04  -2.1851838e-04   0.0000000e+00  -2.6599793e-04   1.5810361e-04   6.5576865e-05  -1.0075937e-04  -1.8096806e-04  -3.6481586e-04  -1.7466343e-04  -3.9417353e-04  -1.8482915e-04  -2.1186246e-04  -9.5160365e-05  -1.1207502e-04  -2.5992865e-04  -2.5602119e-04  -2.5675556e-04  -9.9228195e-05   1.4547840e-04   1.2904071e-04  -2.4814922e-04  -4.4098253e-04  -1.5993375e-05  -8.7366590e-05  -2.8987317e-05   1.1028688e-04   4.3310441e-05   6.6163443e-05  -6.3811423e-05  -1.7746646e-04  -1.8204925e-05  -1.9886353e-05  -6.4860039e-05  -9.4513031e-06   1.0911188e-05  -1.1507630e-04  -1.9471023e-04  -1.3051676e-04  -5.2753234e-05   0.0000000e+00  -3.5072275e-05  -9.5707973e-05  -1.3201217e-04  -1.0568762e-04  -1.0789945e-04  -1.0220875e-04  -1.9645178e-04  -4.6410481e-05   4.0115885e-06  -1.0237129e-04   6.5961180e-06  -6.9213558e-05  -1.4496664e-04  -3.2541326e-04  -1.7286992e-04  -1.5818790e-04   5.1736263e-06  -1.1412132e-04  -6.9039376e-05  -9.6037999e-05  -1.7874375e-04  -1.4635509e-04  -5.8175843e-05  -9.4810238e-05  -2.1814877e-04   8.5996342e-05  -2.3215688e-05  -7.6500025e-04  -6.7076807e-05  -1.1556390e-04  -4.8066196e-05  -3.3859401e-04  -4.2105967e-04  -2.0703363e-04  -4.0363920e-04  -4.1580536e-05   2.2261310e-06   0.0000000e+00  -6.8416002e-05  -1.5893215e-04  -2.3333109e-04  -1.9012730e-05   5.4150103e-05  -5.0353520e-05  -5.9843413e-04   3.0315834e-04  -1.3212437e-04  -1.4146126e-04  -1.1433337e-04  -3.8395001e-04  -2.3852482e-04  -3.7771339e-04  -2.5862636e-04  -2.2267647e-04  -1.5511828e-04  -1.0697522e-04   3.0802779e-05   1.2011074e-04  -3.0174826e-04  -1.4360898e-04  -1.8224530e-04  -1.2336028e-04   1.4126008e-04   1.8751388e-04  -1.0552122e-05  -3.3828069e-04  -8.9963567e-06   6.4581020e-05   8.7148055e-07  -1.9475454e-04  -2.6143468e-04  -1.4485342e-04  -1.9781371e-04  -3.5045078e-05  -2.3443876e-05   0.0000000e+00  -7.5915236e-05  -1.8007316e-04  -1.4846041e-04  -1.3523966e-04  -6.1891583e-05  -6.9588064e-05  -2.5424848e-04  -3.1031262e-05  -1.0609115e-04  -4.5929751e-05  -6.5525794e-05  -1.7425271e-04  -2.9606169e-05  -5.4794247e-05  -3.3803182e-05  -2.2171394e-06  -1.2134794e-04   1.9713779e-05  -1.9456260e-05   1.3209547e-05  -1.8886655e-05  -3.2050480e-05  -4.1071165e-05  -4.9396649e-05   1.5684458e-05  -5.0051483e-04   4.7994538e-05  -5.0259209e-04  -9.0544952e-05  -1.9375733e-04   9.7707401e-05  -1.9403531e-04  -4.4197879e-04   1.3788056e-04   5.4211388e-05   2.2054916e-04   3.0734766e-04   0.0000000e+00  -2.3773864e-04  -3.7320425e-04  -1.8693464e-06   3.1952034e-04   1.7803014e-04   1.7987831e-04   2.9466387e-04   2.8836080e-04   7.0380713e-05   1.0969207e-04   9.3926755e-05  -1.4053619e-04   2.0845622e-04   3.3682256e-04   1.5659801e-04   1.3178319e-04  -1.2520250e-04  -1.6713966e-04   2.8316975e-04   2.8264309e-04   1.2564171e-04   1.7989809e-04  -5.9620025e-04  -3.0036257e-04   6.8963497e-05   2.2158481e-04   1.5911740e-06  -5.1861923e-04   3.7917473e-05   1.5020604e-04   3.5883435e-05  -7.1257372e-05  -2.6100472e-04  -2.8598090e-04  -4.0785959e-04  -1.5116479e-04   4.5981398e-05   0.0000000e+00   9.6742485e-05  -3.0294034e-04  -3.0592435e-04  -2.1297553e-04  -1.1813205e-04   2.8314200e-06  -4.3214783e-04  -5.9146627e-05  -5.9816647e-05  -1.0438216e-04  -1.4134378e-04  -1.6556368e-04  -1.5576023e-04  -4.7380121e-04  -3.1067324e-04  -1.3954028e-04  -2.8579513e-04   1.2909068e-04  -9.4775882e-05  -7.9000336e-05  -2.1476977e-04  -1.1719018e-04  -1.4381548e-04  -6.4851936e-05  -2.6292982e-05  -2.2802357e-04  -1.6382984e-04  -2.4274564e-04  -1.9698048e-04  -8.4447382e-05  -1.3476174e-05  -5.7115997e-05  -9.5391585e-05  -2.9540374e-04  -2.9674871e-04  -3.7304686e-05   3.3203688e-05   0.0000000e+00  -1.2848474e-04  -1.2478814e-04  -2.5158123e-04  -1.3807258e-04   3.0316539e-05   3.9454483e-06  -1.3099588e-04  -2.4325669e-05  -9.2064789e-05  -3.6211518e-05  -2.0385132e-04  -2.1943708e-04   6.8439136e-05  -3.6129233e-04  -2.6367610e-04  -4.2988712e-04   9.3604399e-04   2.1663143e-04   7.2926172e-05  -1.9440201e-04  -2.9698642e-04  -2.9346487e-04   1.1001051e-03   2.5923875e-04  -4.3413404e-04   4.9744425e-04  -3.9372708e-05  -8.3885011e-04  -9.1477037e-04  -2.0185516e-04   1.5275752e-06  -1.3261548e-04  -6.6251086e-04  -4.8594264e-04  -5.9928280e-04  -1.7172689e-04   1.0460928e-04   0.0000000e+00  -4.0509125e-05  -4.7147485e-04  -4.9883725e-04  -4.3784565e-04   9.2866906e-05   1.8730732e-05  -7.0956584e-04   2.8256919e-04  -1.7849986e-04   3.1300188e-06  -1.8348648e-04  -3.6823915e-04  -4.0072768e-05  -3.8517895e-04  -2.4979468e-04  -1.1561202e-04  -8.3960545e-05  -1.0551806e-04   1.6148768e-04   2.0085220e-04  -2.0525172e-04  -1.4546713e-04  -3.8620108e-06  -2.1025900e-04  -1.2143285e-04  -1.5510409e-04  -3.2129849e-05  -5.4040421e-04  -6.5924974e-05  -3.0345995e-05  -9.8655952e-05   7.6176291e-05   3.8343916e-04  -2.4176622e-05  -2.1647167e-04  -1.1947933e-04  -6.0396903e-05   0.0000000e+00  -4.1384690e-04   7.9034364e-05  -8.8675343e-05  -7.6870563e-05  -8.2400296e-05  -2.5583712e-05  -9.4959682e-05  -1.2265628e-05  -1.5240267e-04  -5.8563916e-05  -1.2560977e-05  -5.4640902e-04  -2.1375489e-05  -2.0408734e-04  -8.7908583e-05  -1.4490704e-04   1.6929048e-04   2.6322645e-05   9.3611088e-05   2.6024339e-05  -1.5802361e-04  -2.1767764e-04   6.4191403e-05  -1.2326293e-04  -6.7172215e-04   9.5359263e-05   1.0755049e-04   3.4991688e-04   4.2313605e-04  -7.7356355e-05  -8.6114278e-06   1.8034914e-03   2.8121138e-03   6.0381543e-04   5.4649339e-04   3.0189798e-04  -9.0122500e-05   0.0000000e+00   5.5496013e-04   1.3607817e-03   3.4877407e-04   2.2297227e-04  -7.4210787e-05  -1.8605720e-06   3.5916803e-04  -8.3186123e-05   9.5790638e-05   7.8595213e-05   1.5409152e-04   1.9491695e-05   9.9172405e-05   2.7903272e-04   4.7978299e-04   6.9760337e-05   1.1164347e-03   8.8684641e-04   7.8961927e-05   2.6894719e-04  -4.1800001e-05  -2.9106641e-05   7.5462110e-04   2.6315806e-05  -2.8868049e-04
   1.4795787e-04   1.7584019e-05  -1.7353166e-04  -1.1042688e-05  -8.0802197e-06  -2.0818632e-05  -6.7903927e-05  -1.4937906e-04  -1.3461898e-04  -2.2099485e-04  -9.4500797e-05  -5.8225857e-05   0.0000000e+00   1.4422031e-05  -1.3593457e-04  -1.1655576e-04  -7.2820355e-05  -9.3748187e-05  -7.0893891e-05  -2.9282842e-04   6.1962387e-05   2.1828029e-05  -2.8812261e-06   5.1194094e-05   4.9345159e-05  -6.3657973e-05  -1.2653514e-04  -5.9290174e-05  -9.3505560e-05  -5.1715247e-05  -6.0825706e-05   2.9438978e-05   4.9202124e-05  -7.7118976e-05  -4.4089425e-05  -5.7701810e-05   1.0453081e-05   1.3560695e-04  -1.8277777e-04  -1.2292066e-04  -5.0457254e-04  -2.2497826e-04  -2.5836817e-04  -2.0740270e-04  -4.2077071e-04  -5.5350021e-04  -1.1557916e-04  -4.0000854e-04  -2.2578918e-04  -2.9060292e-04   0.0000000e+00  -3.9110690e-04  -2.6716194e-04  -1.1817805e-04  -1.2454830e-05  -2.2386674e-04  -3.3587059e-04  -1.5961934e-04  -2.5962245e-04  -1.4939572e-04  -1.6816885e-04  -1.8921464e-04  -1.5411119e-04  -1.3353598e-04   1.8781751e-05   6.3585613e-05  -6.1571403e-05  -2.9361042e-04  -2.0060961e-04  -2.6333139e-04  -3.0124628e-04   1.4466106e-04  -5.2671279e-06  -5.0960531e-04   4.5591197e-05   3.6347261e-04  -8.9469928e-06  -1.0234190e-04   1.3213277e-04  -6.8394048e-05  -1.4932480e-04  -1.4819840e-04   1.2776403e-04   2.1278660e-04   5.7457689e-05  -3.2029313e-05  -1.7669437e-04  -1.7485581e-04   0.0000000e+00  -2.6890993e-04   1.8669224e-04   9.2915781e-05  -4.6980199e-05  -1.4206128e-04  -3.3370296e-04  -1.1826829e-04  -3.4922787e-04  -1.7273037e-04  -1.9482619e-04  -8.1885119e-05  -1.0329311e-04  -2.1895802e-04  -2.2560671e-04  -2.4971686e-04  -1.0082538e-04   1.7051325e-04   1.0703305e-04  -2.1328178e-04  -4.0729519e-04  -8.4810751e-06  -8.5568642e-05  -1.7182003e-05   1.2509813e-04   5.4315967e-05   5.4855189e-05  -6.1338261e-05  -1.5544898e-04  -1.1672037e-05  -2.2803386e-05  -6.0039649e-05  -8.8336140e-06   2.5446776e-05  -9.6438592e-05  -1.6421881e-04  -1.1958823e-04  -4.0145456e-05   0.0000000e+00  -3.5064176e-05  -8.2527694e-05  -1.1616699e-04  -9.1386517e-05  -9.5144006e-05  -8.8083265e-05  -1.5565743e-04  -4.7233361e-05  -1.5991632e-07  -1.0056842e-04   1.9215857e-06  -7.7726021e-05  -1.3234081e-04  -3.0926911e-04  -1.6450553e-04  -1.5558323e-04   8.5340888e-06  -1.1683580e-04  -6.6039195e-05  -9.9505000e-05  -1.7187637e-04  -1.4647442e-04  -5.4288446e-05  -9.7297945e-05  -2.2098146e-04   7.7024783e-05  -2.6365603e-05  -7.7648893e-04  -7.9747749e-05  -1.2510858e-04  -5.1570806e-05  -3.2938439e-04  -4.1775240e-04  -2.0633253e-04  -4.1369248e-04  -5.9397497e-05  -1.0427240e-06   0.0000000e+00  -4.2176128e-05  -1.3300733e-04  -2.3881487e-04  -2.0051304e-05   4.0720791e-05  -5.9527677e-05  -6.0242131e-04   3.1585736e-04  -1.3908290e-04  -1.5221333e-04  -1.2526533e-04  -4.1092569e-04  -2.5333250e-04  -3.9859141e-04  -2.8266727e-04  -2.3102738e-04  -1.5977503e-04  -8.8077725e-05   2.8503304e-05   1.1121238e-04  -3.1824696e-04  -1.4666593e-04  -1.8272376e-04  -1.3750296e-04   8.0564354e-05   1.8751820e-04  -1.2112340e-05  -3.3752132e-04  -2.1674555e-05   5.3440935e-05   1.0675589e-07  -1.8108385e-04  -2.3854832e-04  -1.4725296e-04  -1.8797620e-04  -3.2988977e-05  -1.8857617e-05   0.0000000e+00  -7.6202410e-05  -1.7893661e-04  -1.4558676e-04  -1.2779183e-04  -6.2739901e-05  -6.9463337e-05  -2.3906588e-04  -4.2227236e-05  -1.1717898e-04  -4.9541040e-05  -7.6753782e-05  -1.8707069e-04  -2.6479488e-05  -3.7713287e-05  -2.8160553e-05  -3.5050262e-06  -1.1020247e-04   2.3391723e-05  -2.3970213e-05   9.3789089e-06  -1.1345261e-05  -3.3046148e-05  -3.1942676e-05  -4.2374889e-05   1.0556782e-05  -5.4254927e-04   4.3289412e-05  -4.2592268e-04  -6.8690629e-05  -1.8335330e-04   1.1019943e-04  -1.5123272e-04  -3.8645610e-04   1.7045955e-04   1.0771893e-04   2.5793561e-04   3.1480703e-04   0.0000000e+00  -2.1694759e-04  -3.4395399e-04   3.9545319e-05   3.4053283e-04   2.1592858e-04   2.0290796e-04   3.3852615e-04   2.8252068e-04   8.1444946e-05   1.1424810e-04   1.0985435e-04  -1.1466879e-04   2.2108443e-04   3.7332560e-04   1.8165685e-04   1.6427871e-04  -1.0844581e-04  -1.3675320e-04   2.8313318e-04   2.9310470e-04   1.4290721e-04   2.0346104e-04  -5.9524940e-04  -2.4943921e-04   1.5530946e-04   2.2892338e-04   3.5440941e-06  -5.2598958e-04   4.3789016e-05   1.6602730e-04   4.2858551e-05  -5.1728269e-05  -2.3859674e-04  -2.7779672e-04  -3.8899664e-04  -1.5141853e-04   5.3429886e-05   0.0000000e+00   8.8186149e-05  -2.8184084e-04  -3.0755795e-04  -2.1891210e-04  -1.1943037e-04   7.8122647e-06  -3.8951310e-04  -5.8416189e-05  -6.2841556e-05  -1.0095492e-04  -1.4253143e-04  -1.6853213e-04  -1.2973840e-04  -4.5519164e-04  -2.9530890e-04  -1.2805751e-04  -2.9798859e-04   1.5494697e-04  -8.5068818e-05  -7.6917649e-05  -2.0058590e-04  -1.1396235e-04  -1.3932182e-04  -7.8309249e-05  -5.1815385e-05  -2.4060909e-04  -1.7055763e-04  -2.4069302e-04  -1.8948753e-04  -8.4247117e-05  -7.1916512e-06  -6.6393520e-05  -9.5363528e-05  -2.8093476e-04  -2.9136597e-04  -3.4627984e-05   4.1305059e-05   0.0000000e+00  -1.3179731e-04  -1.2732515e-04  -2.4244194e-04  -1.3675587e-04   4.1933377e-05   1.7235560e-05  -1.1230138e-04  -1.7673744e-05  -9.1875142e-05  -3.1548728e-05  -2.1319182e-04  -2.0980149e-04   7.8573523e-05  -3.5902162e-04  -2.6383136e-04  -4.2366269e-04   9.6904065e-04   2.3264129e-04   8.1511043e-05  -1.8996982e-04  -2.9264584e-04  -2.8826779e-04   1.1584060e-03   2.7294715e-04  -4.7071361e-04   5.0443357e-04  -2.7221762e-05  -8.1437525e-04  -9.1225485e-04  -2.0643051e-04   1.0975486e-05  -1.1105128e-04  -6.7627194e-04  -4.9339122e-04  -5.8026138e-04  -1.6353722e-04   1.2154710e-04   0.0000000e+00  -4.1860587e-05  -4.7938507e-04  -4.8648066e-04  -4.2837984e-04   1.1334419e-04   3.7716894e-05  -6.8032367e-04   2.7216819e-04  -1.8527986e-04   1.4600340e-06  -1.8268043e-04  -3.9072950e-04  -4.3491462e-05  -3.7096548e-04  -2.4957848e-04  -1.1764164e-04  -9.4399862e-05  -9.8969712e-05   1.5617557e-04   1.9468393e-04  -1.9893669e-04  -1.4796243e-04  -1.1661134e-05  -2.4741863e-04  -1.6514688e-04  -1.8653663e-04  -1.4240786e-05  -4.6662377e-04  -4.6990178e-05  -2.4750054e-05  -8.2990025e-05   5.5245529e-05   3.9710093e-04   3.1224383e-05  -1.6816164e-04  -1.0407951e-04  -4.2853165e-05   0.0000000e+00  -4.5382927e-04   9.3777727e-05  -4.0358903e-05  -5.5813869e-05  -5.7220605e-05   3.4630588e-06  -5.5655745e-05   9.9393947e-06  -1.3818387e-04  -4.3707291e-05   1.1341226e-05  -5.4748217e-04  -5.0107298e-06  -1.6768742e-04  -7.6190416e-05  -1.2817047e-04   1.5558730e-04   3.5655892e-05   1.1434366e-04   4.0362145e-05  -1.4234246e-04  -2.0216123e-04   6.3667963e-05  -1.3368322e-04  -6.8331903e-04   3.7155497e-05   9.4735716e-05   4.2051514e-04   4.4814235e-04  -1.1327654e-04  -1.1202531e-05   1.8013821e-03   2.8177520e-03   6.6445833e-04   5.9430139e-04   3.3179833e-04  -8.4129113e-05   0.0000000e+00   4.8531990e-04   1.3791504e-03   3.8723209e-04   2.7991600e-04  -7.6781230e-05  -9.2754640e-06   4.1785024e-04  -1.0721585e-04   8.5956475e-05   8.4975602e-05   1.3343691e-04   6.4775312e-06   9.0051534e-05   2.9672645e-04   4.6751024e-04   4.1099132e-05   1.0712925e-03   7.9091117e-04   4.9972786e-05   2.3785239e-04  -3.3501203e-05  -5.0164984e-05   7.1636748e-04  -1.0162062e-05  -2.5400578e-04
   1.3759252e-04   1.1407034e-05  -2.0888309e-04  -2.2407862e-05  -1.5518404e-05  -2.4082520e-05  -7.7129329e-05  -1.6534801e-04  -1.5007884e-04  -2.4714888e-04  -1.0367345e-04  -5.9940671e-05   0.0000000e+00   8.0731203e-06  -1.5325876e-04  -1.3145426e-04  -7.9456496e-05  -9.9886132e-05  -7.5904572e-05  -3.0805345e-04   5.4525338e-05   1.0938397e-05  -1.1206696e-05   3.3365671e-05   2.0784186e-05  -7.1597132e-05  -1.3994533e-04  -6.9722304e-05  -1.0437120e-04  -5.8411265e-05  -6.7492101e-05   2.2800622e-05   4.3706730e-05  -8.5392148e-05  -5.3483282e-05  -6.4009613e-05  -6.0021918e-07   1.3317216e-04  -2.7269635e-04  -1.4036429e-04  -4.6243250e-04  -1.7439987e-04  -2.6479922e-04  -2.3065062e-04  -4.0098627e-04  -5.4934039e-04  -7.9609230e-05  -3.7385874e-04  -2.1285789e-04  -3.0627185e-04   0.0000000e+00  -4.0651470e-04  -2.4499371e-04  -9.0464777e-05   7.5042252e-06  -2.3258526e-04  -3.3596883e-04  -1.3541829e-04  -3.0772215e-04  -1.4991415e-04  -1.7047888e-04  -1.9543533e-04  -1.5289728e-04  -1.4687077e-04   1.9158621e-05   6.7425479e-05  -5.4873593e-05  -3.0714846e-04  -1.7761095e-04  -2.7136785e-04  -3.1207429e-04   1.4328149e-04  -4.1720709e-06  -5.1849882e-04   4.6825551e-05   3.7755477e-04  -3.7021770e-06  -9.6868545e-05   1.4824855e-04  -6.5954506e-05  -1.4761093e-04  -1.2964041e-04   1.5088566e-04   2.2553885e-04   8.2568329e-05  -1.3108236e-05  -1.3734439e-04  -1.3958752e-04   0.0000000e+00  -2.6034967e-04   2.0309831e-04   1.0837440e-04  -2.8898891e-07  -1.0320495e-04  -3.0268315e-04  -8.3741664e-05  -3.0034861e-04  -1.5951636e-04  -1.7681316e-04  -6.7746012e-05  -9.3847288e-05  -1.8067892e-04  -1.9968013e-04  -2.4069692e-04  -9.8545303e-05   1.9006317e-04   8.7842379e-05  -1.7679535e-04  -3.6188187e-04  -3.3953160e-06  -8.1207288e-05  -4.8839247e-06   1.4302349e-04   7.2199791e-05   4.3288850e-05  -5.8419793e-05  -1.3107215e-04  -6.3333291e-06  -2.5757833e-05  -5.4995527e-05  -6.2520705e-06   4.2724249e-05  -7.7437613e-05  -1.3226621e-04  -1.0728405e-04  -2.8046617e-05   0.0000000e+00  -3.2968315e-05  -6.7754087e-05  -9.9030675e-05  -7.5460081e-05  -8.0813129e-05  -7.3261976e-05  -1.1391224e-04  -4.6568339e-05  -3.2714920e-06  -9.7618041e-05  -2.1128603e-06  -8.3454968e-05  -1.1839441e-04  -2.9108185e-04  -1.5506737e-04  -1.5211999e-04   1.3737067e-05  -1.1889526e-04  -6.2425129e-05  -1.0175654e-04  -1.6395568e-04  -1.4543287e-04  -5.0235980e-05  -9.6505643e-05  -2.1991149e-04   6.5193638e-05  -3.0477533e-05  -7.7673810e-04  -9.0615343e-05  -1.3214164e-04  -5.4061076e-05  -3.1817078e-04  -4.0832497e-04  -2.0163227e-04  -4.1992782e-04  -7.6343566e-05  -4.8697259e-06   0.0000000e+00  -9.9031741e-06  -1.0122611e-04  -2.4315560e-04  -2.3135477e-05   2.7295964e-05  -6.7781105e-05  -5.9958114e-04   3.2276719e-04  -1.4577251e-04  -1.6066763e-04  -1.3747974e-04  -4.3496904e-04  -2.6567000e-04  -4.1490332e-04  -3.0333241e-04  -2.3675748e-04  -1.6353691e-04  -6.5369558e-05   2.3813322e-05   9.8772160e-05  -3.3062866e-04  -1.4789205e-04  -1.7898675e-04  -1.4875596e-04   2.1572808e-05   1.8670817e-04  -1.4183898e-05  -3.3239288e-04  -3.5213510e-05   4.3108889e-05  -3.8717979e-07  -1.6348653e-04  -2.1082790e-04  -1.4907153e-04  -1.7620146e-04  -3.0337495e-05  -1.4065646e-05   0.0000000e+00  -7.1423623e-05  -1.7488977e-04  -1.4135577e-04  -1.1889699e-04  -6.2386974e-05  -6.7832169e-05  -2.2282778e-04  -5.1126357e-05  -1.2514949e-04  -5.2297337e-05  -8.6380582e-05  -1.9470470e-04  -2.4439461e-05  -2.3364907e-05  -2.3956988e-05  -5.5879364e-06  -9.6755187e-05   2.5426263e-05  -2.7611148e-05   6.2502045e-06  -6.0478724e-06  -3.4075106e-05  -2.1258161e-05  -3.3122496e-05   6.2147850e-06  -5.7704972e-04   3.7461310e-05  -3.3900185e-04  -4.2816146e-05  -1.6721826e-04   1.2391865e-04  -1.0258602e-04  -3.2157085e-04   1.9933103e-04   1.6003402e-04   2.9364398e-04   3.2063707e-04   0.0000000e+00  -1.8876742e-04  -3.1357316e-04   8.0856170e-05   3.5701660e-04   2.5416128e-04   2.2609845e-04   3.7732274e-04   2.7689534e-04   9.4223134e-05   1.2040259e-04   1.2727975e-04  -8.2054885e-05   2.3625950e-04   4.0803420e-04   2.0747654e-04   1.9651402e-04  -8.5005007e-05  -1.0394564e-04   2.8398973e-04   3.0660617e-04   1.5985444e-04   2.2533888e-04  -5.8817987e-04  -1.9265148e-04   2.4716755e-04   2.3568757e-04   5.6456341e-06  -5.3055317e-04   4.9527749e-05   1.7927560e-04   4.8561104e-05  -2.9448054e-05  -2.1428084e-04  -2.6701009e-04  -3.6681753e-04  -1.4849193e-04   6.0485768e-05   0.0000000e+00   8.0536864e-05  -2.5816825e-04  -3.0530906e-04  -2.2149339e-04  -1.1719532e-04   1.3008827e-05  -3.4559637e-04  -5.6412523e-05  -6.6493579e-05  -9.7669725e-05  -1.4319317e-04  -1.7168082e-04  -1.0477838e-04  -4.3328866e-04  -2.7838060e-04  -1.1551512e-04  -3.0853060e-04   1.7666544e-04  -7.4820519e-05  -7.2435743e-05  -1.8523078e-04  -1.1043644e-04  -1.3460704e-04  -9.5683649e-05  -8.3818815e-05  -2.5381747e-04  -1.7460294e-04  -2.3403512e-04  -1.7940744e-04  -8.3555523e-05   1.4026241e-06  -7.6503048e-05  -9.6421283e-05  -2.6231692e-04  -2.7824452e-04  -2.6283744e-05   5.2777187e-05   0.0000000e+00  -1.3904974e-04  -1.2678813e-04  -2.2860734e-04  -1.3126688e-04   5.7169354e-05   3.4457686e-05  -8.3821581e-05  -1.1243385e-05  -8.9777326e-05  -2.4250319e-05  -2.1890584e-04  -1.9510088e-04   9.2781234e-05  -3.4844777e-04  -2.5943931e-04  -4.1134389e-04   9.9284939e-04   2.5155562e-04   9.1907950e-05  -1.8447772e-04  -2.8245132e-04  -2.7767851e-04   1.2083517e-03   2.8904712e-04  -5.0037937e-04   5.1089883e-04  -1.4726391e-05  -7.8467643e-04  -9.0550277e-04  -2.0949806e-04   2.1165390e-05  -9.1359614e-05  -6.9007486e-04  -4.9776285e-04  -5.5711433e-04  -1.5369821e-04   1.4027745e-04   0.0000000e+00  -4.3387882e-05  -4.8793702e-04  -4.7152405e-04  -4.1533124e-04   1.3705391e-04   5.9664108e-05  -6.4723059e-04   2.6110464e-04  -1.8885326e-04   4.8421413e-08  -1.7950189e-04  -4.0809970e-04  -4.6648608e-05  -3.5564625e-04  -2.4828017e-04  -1.1943102e-04  -1.0332021e-04  -9.1570796e-05   1.5041807e-04   1.8847197e-04  -1.9164106e-04  -1.4958332e-04  -1.9296014e-05  -2.8327944e-04  -2.1227080e-04  -2.1685336e-04   6.0168219e-06  -3.7467449e-04  -2.0666809e-05  -1.4877121e-05  -6.3611207e-05   4.1313838e-05   4.1187684e-04   9.2529162e-05  -1.0912863e-04  -8.5710364e-05  -2.2813795e-05   0.0000000e+00  -4.8525643e-04   1.1213508e-04   1.4452862e-05  -3.0269659e-05  -2.9364098e-05   3.5517591e-05  -5.6038142e-06   3.4874949e-05  -1.1655642e-04  -2.7624312e-05   4.3295227e-05  -5.3489737e-04   1.4866673e-05  -1.2634771e-04  -6.0381329e-05  -1.0685070e-04   1.4175901e-04   4.5407774e-05   1.3643917e-04   5.4647018e-05  -1.2390374e-04  -1.8305145e-04   6.1840144e-05  -1.3745384e-04  -6.8111619e-04  -1.3204448e-05   8.5693200e-05   4.7516607e-04   4.6062151e-04  -1.5251908e-04  -1.1231453e-05   1.8150264e-03   2.8299312e-03   7.2343327e-04   6.4376418e-04   3.6587290e-04  -7.1613411e-05   0.0000000e+00   4.3759020e-04   1.4054727e-03   4.2496197e-04   3.4257634e-04  -7.4337458e-05  -1.2992853e-05   4.8108082e-04  -1.2289756e-04   7.6986435e-05   9.0714088e-05   1.1295073e-04  -1.1735591e-05   8.5014629e-05   3.1835831e-04   4.5733826e-04   1.2202565e-05   1.0364993e-03   7.0873056e-04   2.4083466e-05   2.0742509e-04  -2.4972443e-05  -6.9699547e-05   6.8408457e-04  -3.5209721e-05  -2.2087433e-04
   1.2542464e-04   4.7061124e-06  -2.4126858e-04  -3.4172047e-05  -2.3043302e-05  -2.7657183e-05  -8.5089188e-05  -1.7910496e-04  -1.6362434e-04  -2.7050155e-04  -1.1218309e-04  -6.1799331e-05   0.0000000e+00   2.0789272e-06  -1.6853339e-04  -1.4465066e-04  -8.5451593e-05  -1.0541637e-04  -8.0648727e-05  -3.2009603e-04   4.5693974e-05  -1.2440866e-07  -1.9840184e-05   1.4506792e-05  -7.8033252e-06  -7.9640620e-05  -1.5221076e-04  -7.9768785e-05  -1.1401824e-04  -6.4398354e-05  -7.2791313e-05   1.5097322e-05   3.6844499e-05  -9.2536824e-05  -6.2142446e-05  -6.8866338e-05  -1.1018724e-05   1.2815679e-04  -3.6586236e-04  -1.5624470e-04  -4.0195614e-04  -1.1416953e-04  -2.6486356e-04  -2.5033918e-04  -3.8168924e-04  -5.3732169e-04  -3.3738008e-05  -3.3475969e-04  -1.9561175e-04  -3.1753118e-04   0.0000000e+00  -4.2695193e-04  -2.1535483e-04  -5.7277426e-05   3.0429227e-05  -2.3749499e-04  -3.2896386e-04  -1.0178010e-04  -3.5140930e-04  -1.4677666e-04  -1.6757401e-04  -1.9664390e-04  -1.4653839e-04  -1.5335767e-04   2.4968582e-05   7.6001512e-05  -4.4768113e-05  -3.1690060e-04  -1.5709601e-04  -2.7369773e-04  -3.1861297e-04   1.4231174e-04  -1.5546888e-06  -5.2085933e-04   4.5142962e-05   3.8340874e-04   4.5424725e-06  -9.2311715e-05   1.3894967e-04  -6.4568844e-05  -1.4416361e-04  -1.1527099e-04   1.7268344e-04   2.2252370e-04   9.5446744e-05  -1.1513208e-05  -1.0219069e-04  -1.1547855e-04   0.0000000e+00  -2.3902477e-04   2.0507003e-04   1.0954245e-04   3.5905917e-05  -6.6137932e-05  -2.7323000e-04  -7.5881127e-05  -2.4991443e-04  -1.4589187e-04  -1.5832165e-04  -5.3003889e-05  -8.3492494e-05  -1.4659979e-04  -1.8059186e-04  -2.2907584e-04  -9.1078977e-05   2.0260829e-04   7.5806752e-05  -1.4006649e-04  -3.0553749e-04  -9.7979275e-07  -7.3357563e-05   7.9482234e-06   1.6477842e-04   9.8593363e-05   3.1835608e-05  -5.5251423e-05  -1.0528607e-04  -2.3249932e-06  -2.8549117e-05  -4.9973359e-05  -1.9841970e-06   6.1868936e-05  -5.8867044e-05  -1.0024097e-04  -9.4183118e-05  -1.7013893e-05   0.0000000e+00  -2.9058846e-05  -5.2128545e-05  -8.1357990e-05  -5.8673562e-05  -6.5483560e-05  -5.8440763e-05  -7.2972521e-05  -4.4489247e-05  -5.1254724e-06  -9.3674325e-05  -5.3359797e-06  -8.5964970e-05  -1.0364294e-04  -2.7179012e-04  -1.4497296e-04  -1.4794921e-04   2.0486328e-05  -1.2040997e-04  -5.8366570e-05  -1.0281407e-04  -1.5535520e-04  -1.4334286e-04  -4.6378811e-05  -9.2474028e-05  -2.1500389e-04   5.0383450e-05  -3.5773301e-05  -7.6616581e-04  -9.9376723e-05  -1.3642735e-04  -5.5529552e-05  -3.0615317e-04  -3.9310854e-04  -1.9302493e-04  -4.2273528e-04  -9.1731614e-05  -9.2589870e-06   0.0000000e+00   2.7540711e-05  -6.4331719e-05  -2.4650305e-04  -2.8562748e-05   1.4599226e-05  -7.4923291e-05  -5.9102778e-04   3.2383904e-04  -1.5227244e-04  -1.6654427e-04  -1.5098234e-04  -4.5559763e-04  -2.7553843e-04  -4.2671565e-04  -3.2025654e-04  -2.3988000e-04  -1.6631487e-04  -3.9636915e-05   1.6797581e-05   8.3235568e-05  -3.3886518e-04  -1.4740632e-04  -1.7108727e-04  -1.5687018e-04  -3.4194866e-05   1.8571807e-04  -1.6711036e-05  -3.2339817e-04  -4.9115561e-05   3.4122691e-05  -5.6285371e-07  -1.4295459e-04  -1.7960632e-04  -1.5047065e-04  -1.6319524e-04  -2.7322725e-05  -9.2559520e-06   0.0000000e+00  -6.2105475e-05  -1.6820640e-04  -1.3620537e-04  -1.0917065e-04  -6.0993894e-05  -6.4883975e-05  -2.0630517e-04  -5.7395611e-05  -1.2970494e-04  -5.4212624e-05  -9.4036820e-05  -1.9695688e-04  -2.3623830e-05  -1.2538957e-05  -2.1512956e-05  -8.4235053e-06  -8.1671136e-05   2.5741769e-05  -3.0283000e-05   3.7910539e-06  -3.2897801e-06  -3.5159296e-05  -9.4702143e-06  -2.1970057e-05   2.6541060e-06  -6.0292227e-04   3.0866241e-05  -2.4476993e-04  -1.3576776e-05  -1.4589093e-04   1.3836654e-04  -4.9437594e-05  -2.4992605e-04   2.2399621e-04   2.0970145e-04   3.2649588e-04   3.2480123e-04   0.0000000e+00  -1.5367236e-04  -2.8360459e-04   1.2081425e-04   3.6901421e-04   2.9128755e-04   2.4875689e-04   4.0969060e-04   2.7242643e-04   1.0844256e-04   1.2806070e-04   1.4577905e-04  -4.3850819e-05   2.5326809e-04   4.3968687e-04   2.3315962e-04   2.2771107e-04  -5.5446001e-05  -7.0371820e-05   2.8615843e-04   3.2333123e-04   1.7576693e-04   2.4505747e-04  -5.7588254e-04  -1.3238916e-04   3.4014831e-04   2.4194378e-04   7.7901055e-06  -5.3265830e-04   5.5002961e-05   1.8973273e-04   5.3078187e-05  -4.9939632e-06  -1.8934591e-04  -2.5425973e-04  -3.4250139e-04  -1.4209108e-04   6.7334924e-05   0.0000000e+00   7.4455980e-05  -2.3316594e-04  -2.9940491e-04  -2.2060832e-04  -1.1105436e-04   1.8614018e-05  -3.0236529e-04  -5.3067960e-05  -7.0703165e-05  -9.4713370e-05  -1.4348913e-04  -1.7491722e-04  -8.1674776e-05  -4.0932530e-04  -2.6075209e-04  -1.0233174e-04  -3.1726361e-04   1.9342092e-04  -6.4440535e-05  -6.5621910e-05  -1.6925986e-04  -1.0665867e-04  -1.2979772e-04  -1.1594340e-04  -1.2040138e-04  -2.6689783e-04  -1.7566636e-04  -2.2231259e-04  -1.6638988e-04  -8.1620991e-05   1.2852093e-05  -8.6601441e-05  -9.7833855e-05  -2.4006031e-04  -2.5747865e-04  -1.1465327e-05   6.8376223e-05   0.0000000e+00  -1.4918953e-04  -1.2310337e-04  -2.1032454e-04  -1.2130939e-04   7.7143037e-05   5.6546642e-05  -4.5885272e-05  -3.8075314e-06  -8.5416871e-05  -1.3751297e-05  -2.2033953e-04  -1.7521468e-04   1.1182845e-04  -3.2914444e-04  -2.5025709e-04  -3.9312912e-04   1.0077287e-03   2.7244478e-04   1.0499247e-04  -1.7665774e-04  -2.6657730e-04  -2.6184784e-04   1.2499027e-03   3.0705736e-04  -5.2307897e-04   5.1685330e-04  -2.5549691e-06  -7.5050832e-04  -8.9510722e-04  -2.1076891e-04   3.1669612e-05  -7.6305069e-05  -7.0480864e-04  -4.9910966e-04  -5.3128996e-04  -1.4317882e-04   1.5990114e-04   0.0000000e+00  -4.5249998e-05  -4.9741835e-04  -4.5518511e-04  -3.9974473e-04   1.6311696e-04   8.3802355e-05  -6.1237960e-04   2.4965501e-04  -1.8906181e-04  -9.3558273e-07  -1.7437185e-04  -4.1962725e-04  -5.0083003e-05  -3.4068751e-04  -2.4654771e-04  -1.2114372e-04  -1.1075143e-04  -8.3850380e-05   1.4415748e-04   1.8226667e-04  -1.8418027e-04  -1.5037768e-04  -2.6374877e-05  -3.1676702e-04  -2.6068317e-04  -2.4481529e-04   2.8552861e-05  -2.6692093e-04   1.2469919e-05  -6.6201028e-07  -4.0955675e-05   3.6705967e-05   4.2877198e-04   1.5856535e-04  -4.0086804e-05  -6.4414896e-05  -4.7093026e-07   0.0000000e+00  -5.0641784e-04   1.3414947e-04   7.4605303e-05  -6.5163287e-07   6.1235308e-07   7.0037018e-05   5.4842692e-05   6.1680868e-05  -8.8133659e-05  -1.0637089e-05   8.2889243e-05  -5.0890701e-04   3.7968679e-05  -8.0457216e-05  -4.0164204e-05  -8.0899773e-05   1.2884234e-04   5.5280680e-05   1.5935973e-04   6.8926659e-05  -1.0265188e-04  -1.6058471e-04   5.9205891e-05  -1.3362441e-04  -6.6383292e-04  -5.3516350e-05   8.0558571e-05   5.0993491e-04   4.5904912e-04  -1.9250928e-04  -9.1955162e-06   1.8460840e-03   2.8517635e-03   7.7701658e-04   6.8993551e-04   4.0098375e-04  -5.4670524e-05   0.0000000e+00   4.1450784e-04   1.4388756e-03   4.5927514e-04   4.0649449e-04  -6.7440918e-05  -1.3639540e-05   5.4347727e-04  -1.2998542e-04   6.9188289e-05   9.4636851e-05   9.2618993e-05  -3.4441334e-05   8.3393003e-05   3.4156677e-04   4.4905992e-04  -1.5929823e-05   1.0129904e-03   6.4428217e-04   2.3289825e-06   1.7853473e-04  -1.7382500e-05  -8.7143914e-05   6.5862532e-04  -4.7714036e-05  -1.8975890e-04
   1.1183826e-04  -2.3229686e-06  -2.6958093e-04  -4.5877098e-05  -3.0433728e-05  -3.1476333e-05  -9.1590632e-05  -1.9010968e-04  -1.7474771e-04  -2.9019475e-04  -1.1981603e-04  -6.3785161e-05   0.0000000e+00  -3.3247737e-06  -1.8107535e-04  -1.5572683e-04  -9.0692869e-05  -1.1027336e-04  -8.5060438e-05  -3.2857552e-04   3.5667516e-05  -1.1061800e-05  -2.8557591e-05  -4.7797273e-06  -3.5599349e-05  -8.7610296e-05  -1.6303958e-04  -8.9175342e-05  -1.2218806e-04  -6.9532197e-05  -7.6450177e-05   6.5471290e-06   2.8730439e-05  -9.8409207e-05  -6.9861444e-05  -7.2130257e-05  -2.0449073e-05   1.2049747e-04  -4.5967876e-04  -1.7013799e-04  -3.2495873e-04  -4.5795091e-05  -2.5851257e-04  -2.6607226e-04  -3.6335035e-04  -5.1738864e-04   2.0929604e-05  -2.8382556e-04  -1.7456390e-04  -3.2438711e-04   0.0000000e+00  -4.5204740e-04  -1.7885305e-04  -1.9396554e-05   5.6083511e-05  -2.3848456e-04  -3.1516505e-04  -5.9478538e-05  -3.8921123e-04  -1.4003428e-04  -1.5963300e-04  -1.9269575e-04  -1.3541860e-04  -1.5265617e-04   3.6205208e-05   8.9289997e-05  -3.1531139e-05  -3.2235664e-04  -1.4006714e-04  -2.7041730e-04  -3.2065754e-04   1.4189154e-04   2.5805164e-06  -5.1668191e-04   4.0880745e-05   3.8073631e-04   1.6221665e-05  -8.9027668e-05   1.0024973e-04  -6.3452799e-05  -1.3801522e-04  -1.0583135e-04   1.9169575e-04   2.0182983e-04   9.3559216e-05  -2.9050143e-05  -7.2282785e-05  -1.0457410e-04   0.0000000e+00  -2.0424816e-04   1.9115217e-04   9.4822053e-05   5.8757575e-05  -3.2453681e-05  -2.4655786e-04  -9.7824134e-05  -2.0036550e-04  -1.3251414e-04  -1.3977995e-04  -3.7837635e-05  -7.1852737e-05  -1.1787983e-04  -1.7017308e-04  -2.1410590e-04  -7.7156083e-05   2.0703056e-04   7.5408684e-05  -1.0445740e-04  -2.3947319e-04  -1.1790937e-06  -6.1062679e-05   2.1469477e-05   1.9098851e-04   1.3487147e-04   2.0848039e-05  -5.2026726e-05  -7.9011160e-05   3.5049505e-07  -3.0969776e-05  -4.5209284e-05   3.6173280e-06   8.1889693e-05  -4.1448895e-05  -6.9456872e-05  -8.0875070e-05  -7.5445616e-06   0.0000000e+00  -2.3721266e-05  -3.6416253e-05  -6.3889152e-05  -4.1829765e-05  -4.9754847e-05  -4.4303966e-05  -3.4528904e-05  -4.1136378e-05  -5.5660115e-06  -8.8909584e-05  -7.5971633e-06  -8.4951233e-05  -8.8611415e-05  -2.5230937e-04  -1.3462938e-04  -1.4323540e-04   2.8413180e-05  -1.2149714e-04  -5.4039908e-05  -1.0273539e-04  -1.4644832e-04  -1.4034942e-04  -4.3039879e-05  -8.5419505e-05  -2.0651391e-04   3.2618420e-05  -4.2400804e-05  -7.4545350e-04  -1.0576292e-04  -1.3783073e-04  -5.6013632e-05  -2.9447924e-04  -3.7261127e-04  -1.8068879e-04  -4.2254053e-04  -1.0494795e-04  -1.4174686e-05   0.0000000e+00   6.9180071e-05  -2.3211753e-05  -2.4895520e-04  -3.6447851e-05   3.3037071e-06  -8.0815210e-05  -5.7806624e-04   3.1940997e-04  -1.5860173e-04  -1.6966036e-04  -1.6561583e-04  -4.7234395e-04  -2.8303089e-04  -4.3428979e-04  -3.3324764e-04  -2.4050297e-04  -1.6798318e-04  -1.1803115e-05   7.6981776e-06   6.5226306e-05  -3.4313645e-04  -1.4537191e-04  -1.5925234e-04  -1.6178114e-04  -8.5662467e-05   1.8521769e-04  -1.9597088e-05  -3.1117518e-04  -6.2867874e-05   2.6916706e-05  -3.8784973e-07  -1.2065185e-04  -1.4640831e-04  -1.5158109e-04  -1.4969232e-04  -2.4208315e-05  -4.6079705e-06   0.0000000e+00  -4.9060869e-05  -1.5927094e-04  -1.3059499e-04  -9.9252405e-05  -5.8769801e-05  -6.0873327e-05  -1.9018316e-04  -6.0829528e-05  -1.3071827e-04  -5.5335096e-05  -9.9454360e-05  -1.9389983e-04  -2.4063625e-05  -5.7665769e-06  -2.1016826e-05  -1.1907624e-05  -6.5702362e-05   2.4351773e-05  -3.1936065e-05   1.9171700e-06  -3.1734377e-06  -3.6304202e-05   2.8825013e-06  -9.3428136e-06  -1.6273711e-07  -6.1945225e-04   2.3912824e-05  -1.4633782e-04   1.8216707e-05  -1.2017157e-04   1.5297813e-04   6.6549401e-06  -1.7442907e-04   2.4423328e-04   2.5547986e-04   3.5540909e-04   3.2726230e-04   0.0000000e+00  -1.1249975e-04  -2.5540010e-04   1.5829188e-04   3.7675690e-04   3.2582516e-04   2.7014069e-04   4.3462267e-04   2.6992736e-04   1.2372803e-04   1.3700252e-04   1.6486440e-04  -1.4943232e-06   2.7122489e-04   4.6713030e-04   2.5776824e-04   2.5714452e-04  -2.0652471e-05  -3.7628614e-05   2.8988897e-04   3.4314462e-04   1.8997204e-04   2.6224679e-04  -5.5936894e-04  -7.1067833e-05   4.2983583e-04   2.4786285e-04   9.8596056e-06  -5.3265548e-04   6.0047021e-05   1.9736906e-04   5.6592993e-05   2.0948286e-05  -1.6508548e-04  -2.4026249e-04  -3.1728655e-04  -1.3208367e-04   7.4169271e-05   0.0000000e+00   7.0455265e-05  -2.0812514e-04  -2.9025385e-04  -2.1636807e-04  -1.0085985e-04   2.4792705e-05  -2.6165482e-04  -4.8414488e-05  -7.5321073e-05  -9.2228421e-05  -1.4353072e-04  -1.7799798e-04  -6.1046789e-05  -3.8452411e-04  -2.4322633e-04  -8.8910668e-05  -3.2410975e-04   2.0470251e-04  -5.4327753e-05  -5.6668990e-05  -1.5317342e-04  -1.0262182e-04  -1.2503071e-04  -1.3780175e-04  -1.5923309e-04  -2.7889083e-04  -1.7349175e-04  -2.0518435e-04  -1.5005669e-04  -7.7649431e-05   2.7592897e-05  -9.5945248e-05  -9.8918785e-05  -2.1476422e-04  -2.2949194e-04   1.0279207e-05   8.8663154e-05   0.0000000e+00  -1.6097585e-04  -1.1640753e-04  -1.8798277e-04  -1.0678513e-04   1.0273001e-04   8.4245754e-05   7.1199884e-07   5.9934709e-06  -7.8533983e-05   4.2708355e-07  -2.1696635e-04  -1.5037347e-04   1.3628135e-04  -3.0103467e-04  -2.3622279e-04  -3.6941603e-04   1.0142487e-03   2.9409107e-04   1.2158486e-04  -1.6517837e-04  -2.4543263e-04  -2.4115008e-04   1.2833581e-03   3.2610225e-04  -5.3917779e-04   5.2217417e-04   8.5993704e-06  -7.1280264e-04  -8.8172145e-04  -2.1003422e-04   4.2032426e-05  -6.8384451e-05  -7.2116465e-04  -4.9764539e-04  -5.0438508e-04  -1.3299122e-04   1.7936808e-04   0.0000000e+00  -4.7502320e-05  -5.0800710e-04  -4.3875710e-04  -3.8282622e-04   1.9047622e-04   1.0912115e-04  -5.7798315e-04   2.3798633e-04  -1.8597946e-04  -1.3962482e-06  -1.6788466e-04  -4.2488904e-04  -5.4357129e-05  -3.2758305e-04  -2.4506536e-04  -1.2298703e-04  -1.1679966e-04  -7.6397750e-05   1.3721915e-04   1.7596963e-04  -1.7735940e-04  -1.5046531e-04  -3.2558953e-05  -3.4682555e-04  -3.0800609e-04  -2.6935648e-04   5.3175189e-05  -1.4636174e-04   5.1514852e-05   1.7728494e-05  -1.5652865e-05   4.3128258e-05   4.4864176e-04   2.2800405e-04   3.7863124e-05  -4.0328380e-05   2.3840685e-05   0.0000000e+00  -5.1614464e-04   1.5966040e-04   1.3867865e-04   3.2418680e-05   3.2055724e-05   1.0639599e-04   1.2481098e-04   8.9377631e-05  -5.3924520e-05   6.9236787e-06   1.2930892e-04  -4.7030129e-04   6.3816315e-05  -3.0592553e-05  -1.5382525e-05  -5.0460184e-05   1.1782775e-04   6.4976050e-05   1.8248980e-04   8.3263632e-05  -7.8670620e-05  -1.3509514e-04   5.6363025e-05  -1.2164894e-04  -6.3083644e-04  -8.2466991e-05   7.9058152e-05   5.2277949e-04   4.4313655e-04  -2.3078790e-04  -5.7292282e-06   1.8940362e-03   2.8842596e-03   8.2182233e-04   7.2820391e-04   4.3396585e-04  -3.5626965e-05   0.0000000e+00   4.1653282e-04   1.4773978e-03   4.8768542e-04   4.6714195e-04  -5.6986930e-05  -1.2050092e-05   5.9981213e-04  -1.2884403e-04   6.2765503e-05   9.5862024e-05   7.2482911e-05  -6.0464608e-05   8.4477751e-05   3.6391049e-04   4.4231876e-04  -4.2382491e-05   1.0004479e-03   5.9960016e-04  -1.4596881e-05   1.5183878e-04  -1.1790469e-05  -1.0210416e-04   6.3998575e-04  -4.7713192e-05  -1.6068621e-04
