   3.2138284e-05   5.9742417e-06   5.5177066e-05  -2.0274171e-05   2.3795449e-05   1.4580332e-05   1.5954342e-05   1.4145807e-05   7.5010773e-06   2.0835323e-05   5.0291545e-05   7.9672133e-06   1.0579235e-04   1.2768625e-05  -1.4346600e-05   4.8038650e-05   2.5570551e-05   1.5246868e-05   3.8329312e-05   7.6063623e-06   2.3190930e-05  -2.5375120e-05   8.9922986e-06   4.5552072e-06  -2.1956139e-05   1.7889828e-05   1.3249998e-05  -1.4294578e-05  -6.1931121e-06  -1.4188189e-05   1.5679160e-06   1.7745909e-05   9.0031777e-05   4.7069340e-06   6.4573281e-06   3.6504375e-05   1.7927412e-05  -1.7402309e-05   1.2959230e-04  -6.3523604e-05  -2.0995380e-04  -9.5880396e-05  -3.2077740e-04  -3.0309327e-05  -1.5725826e-04  -1.6790198e-04  -3.0104594e-05  -1.7229095e-05   1.1614016e-04   5.9454367e-05   1.8297103e-05   3.4750723e-05  -8.5553933e-05  -6.3108816e-05   6.9810815e-05   1.2646695e-04  -4.3511162e-05   7.2223932e-05  -1.4880500e-05  -2.3744134e-04  -1.5030342e-04  -1.9946138e-05  -1.4123330e-04   4.5237422e-05  -1.4918221e-04  -5.0586053e-05   4.9569335e-05   1.0987263e-04   1.5106449e-04  -5.8126021e-05  -1.3979804e-04   9.5884539e-05   3.9979904e-05   6.3518097e-05   8.1333795e-05   1.0161233e-04  -3.1814518e-04  -2.0014115e-04  -1.6043601e-04  -2.9313688e-04  -2.4875666e-04  -2.1159352e-04  -1.8389658e-04  -1.1725150e-04  -1.8155766e-04  -1.6645689e-04  -1.9001656e-04  -2.5793677e-04  -2.5661374e-04  -2.0445926e-04  -7.8414945e-05  -1.3391204e-04  -2.7352568e-04  -2.4000311e-04  -2.9294516e-04  -2.3010936e-04  -2.4795498e-04  -1.9601432e-04  -1.7927296e-04  -2.1690602e-04  -2.4047115e-04  -8.8726956e-05   2.1718691e-05  -1.8694436e-04  -2.0618087e-04   2.0627642e-04   1.5654895e-04  -2.3922511e-04  -1.6666865e-04  -7.1298908e-05  -1.1382680e-04  -3.4093202e-05  -4.7572257e-05  -6.0704901e-05  -2.0871907e-05  -1.7081041e-05   6.2815849e-05  -5.1986228e-05   6.5337571e-05  -1.8215340e-05   8.1120050e-05   4.2872998e-05  -1.2472023e-06  -2.2184475e-05   2.7661576e-05  -7.1360909e-05   3.3121847e-05   1.7463227e-05  -2.7361067e-05   2.3304973e-05   9.2602255e-06  -1.8560960e-05   3.6815400e-05  -7.5478747e-05   2.5799320e-05  -2.3822481e-05  -4.1261715e-07  -1.6303226e-05  -2.9496127e-05  -2.8240656e-05   5.0725901e-05  -5.0844842e-05  -8.3079403e-05  -1.0834196e-04  -4.4066319e-05   5.5864284e-05   2.0745514e-04  -1.0781198e-04  -2.7330133e-05  -2.6886183e-05  -8.0223918e-05  -7.6029540e-05  -1.8535471e-05   5.2552174e-05   6.0711685e-05  -6.8000916e-05   9.8171392e-05   4.1848553e-05   8.5566111e-05   1.7822868e-04  -2.9292042e-05   3.5844944e-05   1.4386030e-04   2.9461858e-05  -3.4550444e-05   2.2311364e-05   4.8103379e-05   7.0474859e-05   8.6436463e-05   2.7849601e-05   3.8029993e-05  -3.0701713e-05   2.7151952e-05   3.9662752e-06   5.2415706e-05  -4.8548946e-05   1.9985678e-05   6.7536638e-05   9.7420615e-05   4.6847478e-05   1.4673317e-04   3.6999324e-04   2.2200676e-04   8.0321528e-05   5.3170527e-05  -1.5712692e-04   1.3696635e-04   2.4227807e-04   2.4691016e-04  -1.3647327e-05  -1.3397521e-04  -8.9481252e-05  -1.7435470e-05  -4.8139764e-05  -5.7856701e-05  -3.6277378e-05   3.8779470e-05   2.8048118e-05  -4.8147372e-05  -2.7862243e-05   7.0999652e-06  -4.7412756e-05  -1.3412322e-06   8.1714653e-06  -3.2135513e-06  -5.6717230e-05   6.5642619e-06  -2.5739108e-05  -4.2740729e-05  -1.0807288e-04  -3.4079718e-05  -5.2952681e-05  -3.6837365e-05  -7.7950571e-05  -7.7602789e-05  -1.5790290e-05  -3.4696316e-05  -5.4903956e-05  -6.2437311e-05  -9.6574104e-05  -6.6710931e-05  -4.1600264e-05  -1.0590752e-04  -1.6028246e-05  -4.9003058e-05  -7.2481232e-05  -5.5322933e-05  -5.2424212e-05   4.1005114e-06   2.7069068e-05   6.4419158e-06  -5.8566546e-05   3.5348605e-05  -3.4540877e-05   2.9936831e-06   1.2029605e-04   1.5907241e-04   6.8053065e-05   8.0456424e-05   4.0143386e-05  -1.2632009e-04   9.6860099e-05   1.3533677e-04   1.1261368e-05   9.8934016e-05  -1.0270875e-04  -6.1431347e-05  -6.7008263e-05   7.2776927e-05  -3.9993242e-05  -6.0383776e-06  -1.5074595e-05   8.6253422e-06   1.4397074e-04   5.3694224e-04  -5.0269868e-05  -3.9383944e-04  -7.8457151e-04  -2.8730636e-04   4.4983365e-06   7.5027011e-04  -1.0057459e-04  -1.3522091e-04  -4.2752495e-04  -4.0678317e-04  -4.1911033e-04   1.3090557e-04   5.2885894e-05   7.6748503e-05   4.5192990e-05   5.9764807e-05   4.8375940e-05  -3.4600284e-05  -3.9964650e-05   5.9841219e-05   6.9243282e-06   5.3042700e-05   7.5496022e-05   4.5687415e-05  -3.8356277e-05  -4.1135283e-05   3.7350478e-05   1.3275869e-05   7.2709371e-05   9.9882032e-05   9.4837946e-05   4.6895286e-05   2.8494515e-05   5.4169185e-05   1.1269872e-05   4.7817301e-05   1.8509134e-05   3.9942684e-05   5.3298330e-05   4.5247452e-05   1.9698591e-05  -1.0599755e-05   9.3082651e-05   8.4700466e-05  -2.4191467e-05   3.9577293e-05   5.0446542e-05   2.8650238e-05   3.8308043e-05   1.0209961e-04  -1.2916278e-04   2.6183950e-04  -1.9328692e-04   2.8191762e-04  -3.6059093e-05   1.7634360e-05   1.2953945e-04   2.3123346e-04   1.6579784e-04  -8.9726823e-05  -6.8416043e-05   1.2114667e-04   5.5696277e-05   3.0885034e-04   3.9695548e-04   5.5009538e-06  -6.9689253e-05   1.5134561e-04  -1.0654237e-04   4.6779339e-06  -2.4252568e-04  -4.6574132e-05  -2.3767255e-04  -2.8060778e-05  -3.4403415e-05   2.1959243e-04  -1.8024618e-04  -1.2677085e-05  -1.2811002e-05   4.0898371e-05   2.2443461e-04   8.0104585e-04  -6.1330705e-04  -2.3490090e-06   8.7129301e-06  -2.0419828e-04  -4.4445843e-04   7.0323407e-05   1.0042474e-04   1.8672868e-04   2.3071105e-05   1.4857259e-04   5.0053351e-05   5.8710030e-05   6.3934754e-05   1.3692891e-04   9.5846804e-05   6.8626850e-06   2.7313182e-05   1.9074783e-04   3.8150668e-05  -2.3999010e-05   9.5890465e-05  -3.5732467e-05   1.0353817e-05   1.1014212e-04   5.6714867e-05   8.4193345e-05   4.0378865e-05   6.2668074e-05   8.2067096e-05   3.7253504e-05   3.2889322e-06  -2.5022167e-06   5.5807116e-06   4.7207895e-05  -7.3733855e-05  -1.5073188e-05   7.6846652e-05   3.2099478e-04  -5.6516728e-05   4.2183183e-05   1.0180877e-04  -1.1795656e-04  -1.9022722e-04  -3.1533225e-05   1.3210221e-04  -2.9611671e-04   1.1381361e-04  -1.6227685e-04  -4.0857965e-05  -4.3905795e-05  -1.2116660e-04  -5.6299399e-05  -9.6597495e-05  -3.4400422e-04   6.2504939e-05  -3.4678901e-04  -8.0121578e-06   1.5563873e-05  -2.6081643e-04  -1.0590413e-04   8.2598654e-05  -1.6123628e-04  -2.4104372e-05   5.7402581e-05   2.0624480e-04  -8.9318496e-05   1.0702223e-04  -1.2926061e-04  -1.2486412e-04  -1.3335604e-04  -1.2188475e-04  -2.9330371e-04   5.4954229e-05  -1.1723723e-04  -1.3209456e-06   1.3760723e-05   2.2621788e-04  -1.2988777e-04  -6.8445884e-05  -7.5572289e-05  -6.2315111e-05
   3.4333769e-05   5.0260233e-06   6.3865712e-05  -2.3765623e-05   2.5874794e-05   1.3553732e-05   1.9683808e-05   1.4250786e-05   3.7657356e-06   1.7619180e-05   5.1739084e-05   3.3398599e-06   1.2053940e-04   1.4059954e-05  -1.8420408e-05   4.6856250e-05   2.5822525e-05   1.1465211e-05   3.7607239e-05   5.2419797e-07   2.2458422e-05  -3.0482177e-05   7.3267570e-06  -4.2478059e-07  -3.1509586e-05   1.5062928e-05   1.1952991e-05  -2.2294915e-05  -1.3353564e-05  -2.2257712e-05   1.3268729e-06   1.4127694e-05   9.1282847e-05   6.7137952e-06   2.3170433e-06   3.6913026e-05   1.6342407e-05  -1.6591747e-05   1.5133237e-04  -6.6048691e-05  -2.4472038e-04  -8.6809924e-05  -3.6588354e-04  -3.2038248e-05  -1.7560877e-04  -1.9149175e-04  -3.7311553e-05  -1.5462330e-05   1.4009302e-04   7.5723586e-05   2.3350269e-05   4.5555152e-05  -8.7128292e-05  -7.8308588e-05   7.8637917e-05   1.5080260e-04  -6.0366868e-05   8.0954182e-05  -2.0763690e-05  -2.5815344e-04  -1.6663051e-04  -1.5327268e-05  -1.5348849e-04   5.2986287e-05  -1.8276391e-04  -6.5737941e-05   5.3293115e-05   1.2077066e-04   1.8031652e-04  -8.0196767e-05  -1.4806801e-04   1.2845104e-04   4.2449566e-05   7.2526524e-05   8.1414739e-05   1.0877158e-04  -3.4892130e-04  -2.2463516e-04  -1.8395925e-04  -3.1962206e-04  -2.8313083e-04  -2.3288638e-04  -1.6784717e-04  -7.0870904e-05  -1.7391773e-04  -1.8247930e-04  -2.0953709e-04  -2.8106233e-04  -3.0307160e-04  -2.2173489e-04  -2.5544612e-05  -1.4097436e-04  -3.1195024e-04  -2.6500129e-04  -3.3748231e-04  -2.6131128e-04  -2.7395844e-04  -2.1421651e-04  -2.0258811e-04  -2.4753937e-04  -2.6799329e-04  -8.9918263e-05   5.2534101e-05  -1.9507191e-04  -2.7165071e-04   9.2775732e-05   1.1502753e-04  -2.7111822e-04  -2.0703633e-04  -9.3214849e-05  -1.3920397e-04  -1.4907635e-04  -1.1532365e-04  -2.7360846e-05  -2.9625100e-05  -2.9111862e-05   6.8184697e-05  -5.5971715e-05   6.9848352e-05  -2.4316708e-05   8.8243864e-05   3.2397216e-05  -6.2087458e-06  -2.7538518e-05   2.4056519e-05  -8.5347509e-05   2.9666698e-05   1.0257046e-05  -4.0958838e-05   2.0027478e-05   8.1841252e-06  -2.8559403e-05   3.2468220e-05  -9.3586896e-05   2.4848019e-05  -3.1540810e-05  -4.0933588e-06  -2.1216234e-05  -3.9572401e-05  -3.7216962e-05   3.8854017e-05  -5.9111548e-05  -9.5238818e-05  -1.3023867e-04  -5.1014203e-05   5.4764700e-05   2.1664791e-04  -1.1657322e-04  -2.9757837e-05  -2.8659705e-05  -9.4445514e-05  -8.4989702e-05  -1.4229459e-05   6.0367482e-05   6.5032733e-05  -7.4480742e-05   1.0544630e-04   4.9360549e-05   9.7132465e-05   2.3203776e-04  -3.2609757e-05   4.2439596e-05   1.5903794e-04   3.9038890e-05  -4.5443486e-05   2.8176156e-05   6.4686106e-05   7.8421623e-05   9.5787961e-05   3.6960879e-05   5.1137704e-05  -1.6502789e-05   3.5115043e-05   6.2452261e-06   6.0964526e-05  -4.8890730e-05   2.3218772e-05   7.7606556e-05   1.0373179e-04   5.7399190e-05   1.7301649e-04   4.3979259e-04   2.5938382e-04   9.1001023e-05   6.5112349e-05  -1.6436740e-04   1.5703857e-04   2.8194970e-04   2.8100361e-04  -1.4586394e-05  -1.5275740e-04  -1.0370905e-04  -2.6798629e-05  -5.6388924e-05  -6.8399513e-05  -4.3248142e-05   4.1405559e-05   3.5207667e-05  -5.1022710e-05  -3.3063554e-05   4.8800966e-06  -5.4327838e-05  -1.5564352e-05   9.9342621e-06   4.9920195e-06  -6.6299037e-05   5.7180832e-06  -3.0860233e-05  -5.1385761e-05  -1.2189672e-04  -3.9944370e-05  -6.1088931e-05  -4.3346865e-05  -8.8553124e-05  -8.6811522e-05  -1.6808165e-05  -3.5750474e-05  -6.0706068e-05  -7.6543309e-05  -1.2039658e-04  -8.0132465e-05  -4.5820950e-05  -1.2080225e-04  -2.0468480e-05  -5.8484970e-05  -9.4068328e-05  -7.3082133e-05  -6.0108356e-05   2.2930966e-05   4.4520845e-05   7.6890586e-06  -4.9524043e-05   4.4409254e-05  -3.8446838e-05   1.9630888e-05   1.3939962e-04   1.7792090e-04   7.8584152e-05   9.1313200e-05   5.1194836e-05  -1.2541042e-04   1.1185954e-04   1.5173093e-04   2.4594677e-06   1.1947977e-04  -1.0194114e-04  -6.7156565e-05  -7.7382520e-05   8.8281585e-05  -3.0699516e-05  -5.7611781e-06   6.1973151e-06   2.4966590e-05   1.7397083e-04   6.0878042e-04  -5.1670489e-05  -4.3891501e-04  -8.9183634e-04  -3.0511791e-04   1.6395168e-05   8.7332058e-04  -9.4553587e-05  -1.6273463e-04  -4.9692888e-04  -4.5534562e-04  -4.3518217e-04   1.5512322e-04   6.2247880e-05   8.4067996e-05   6.2430127e-05   6.8800527e-05   5.6149882e-05  -3.3143721e-05  -4.3398310e-05   6.4047448e-05   8.7781530e-06   5.7775982e-05   8.5093452e-05   4.2294554e-05  -4.0711084e-05  -4.6243937e-05   3.4999291e-05   1.6145579e-05   8.4350849e-05   1.1155648e-04   1.0447836e-04   5.0978680e-05   3.3956834e-05   6.0914557e-05   1.5128518e-05   5.2913877e-05   2.1857182e-05   3.4076951e-05   6.0767121e-05   5.2443243e-05   1.5809365e-05  -1.3050713e-05   9.9158762e-05   9.1361819e-05  -1.8648456e-05   4.4655523e-05   5.4537459e-05   3.1369848e-05   4.4216497e-05   9.8224555e-05  -1.4304734e-04   2.6335954e-04  -1.8613512e-04   2.8069886e-04  -5.1559153e-05   4.0150480e-06   3.6871109e-05   1.9603774e-04   1.5891167e-04  -1.0035845e-04  -9.1014643e-05   1.4655577e-04   3.5179255e-07   2.3207869e-04   3.7145492e-04  -3.0757704e-06  -9.0817353e-05   1.2561273e-04  -1.5884807e-04   1.2147090e-06  -2.6505681e-04  -5.9582831e-05  -2.4877054e-04  -2.2414693e-05  -2.6840610e-05   1.7435419e-04  -1.8548527e-04  -4.5769654e-05  -1.1420956e-04   4.0482652e-06   2.0375247e-04   8.0351436e-04  -5.9851380e-04  -1.5681241e-05  -4.2240892e-05  -2.4290916e-04  -4.2774585e-04   7.8682705e-05   1.2497663e-04   1.9894398e-04   3.6070445e-05   1.6897089e-04   5.4136591e-05   5.7184171e-05   4.8531808e-05   1.4353620e-04   9.9376498e-05  -9.3772005e-07   2.7838163e-05   1.9955152e-04   2.8480110e-05  -3.3353858e-05   9.3754030e-05  -4.8492040e-05   4.5360137e-06   1.1132534e-04   5.2505749e-05   8.7784495e-05   4.7233146e-05   6.5093007e-05   9.1251679e-05   3.2504027e-05   5.4037553e-06  -6.9623184e-06   5.9993110e-06   5.7668338e-05  -7.2652303e-05  -7.6686624e-06   7.3662027e-05   3.4695030e-04  -5.8341207e-05   4.4523536e-05   1.1900600e-04  -1.2954002e-04  -1.9862945e-04  -5.1087958e-05   1.4443316e-04  -3.5830699e-04   1.2136164e-04  -1.9786379e-04  -4.6852774e-05  -5.9159570e-05  -1.2980722e-04  -7.7199411e-05  -1.0890637e-04  -3.9335911e-04   7.8936277e-05  -4.0253407e-04  -8.7477644e-06   9.8365448e-06  -3.1280078e-04  -1.2692926e-04   9.6141997e-05  -1.8734243e-04  -2.0366580e-05   4.9693078e-05   2.4036781e-04  -1.0309105e-04   1.1289898e-04  -1.4399074e-04  -1.3977949e-04  -1.5504061e-04  -1.2748415e-04  -3.2241491e-04   7.8600101e-05  -1.3139228e-04  -6.3818152e-06   7.2711130e-07   2.6489550e-04  -1.4689231e-04  -7.2181878e-05  -6.3960734e-05  -6.9937413e-05
   3.5741572e-05   3.9510736e-06   7.2049400e-05  -2.6979206e-05   2.7542198e-05   1.1887762e-05   2.3258843e-05   1.3826400e-05  -7.2765402e-07   1.3143414e-05   5.1545525e-05  -2.2969720e-06   1.3391966e-04   1.5237278e-05  -2.2663625e-05   4.3783579e-05   2.5072836e-05   6.5872577e-06   3.5698031e-05  -7.6912352e-06   2.0895934e-05  -3.5388422e-05   5.2308001e-06  -6.2749541e-06  -4.1514001e-05   1.1131160e-05   1.0347245e-05  -3.0899012e-05  -2.1122668e-05  -3.0556531e-05   1.2451805e-06   9.6744532e-06   8.9661133e-05   8.4476407e-06  -2.4875293e-06   3.6078875e-05   1.3875404e-05  -1.5070334e-05   1.7195723e-04  -6.5082143e-05  -2.7769060e-04  -6.9982042e-05  -4.0654164e-04  -3.1476911e-05  -1.9006145e-04  -2.1288896e-04  -4.4839468e-05  -1.2025930e-05   1.6399151e-04   9.4550664e-05   3.1057343e-05   5.5483979e-05  -8.7389580e-05  -9.1862100e-05   8.6918928e-05   1.7700661e-04  -7.7454933e-05   9.0529863e-05  -2.7221286e-05  -2.6957694e-04  -1.7812545e-04  -7.2010600e-06  -1.6077560e-04   6.1092635e-05  -2.1389287e-04  -7.9364634e-05   5.5393301e-05   1.2810380e-04   2.0549387e-04  -1.0257506e-04  -1.5790245e-04   1.6525661e-04   4.2534673e-05   7.7438451e-05   8.1070338e-05   1.2284188e-04  -3.7519420e-04  -2.4588785e-04  -2.0836580e-04  -3.4051876e-04  -3.1608448e-04  -2.5130775e-04  -1.4543335e-04  -1.7321137e-05  -1.6097505e-04  -1.9558250e-04  -2.2492809e-04  -3.0014649e-04  -3.5160768e-04  -2.3681958e-04   3.6875135e-05  -1.4636275e-04  -3.4543276e-04  -2.8532096e-04  -3.8028540e-04  -2.9326321e-04  -2.9465819e-04  -2.2756251e-04  -2.2318552e-04  -2.7391111e-04  -2.9127297e-04  -8.7648863e-05   9.1300265e-05  -1.9637152e-04  -3.4742038e-04  -6.3047923e-05   4.9398771e-05  -2.9731932e-04  -2.4662106e-04  -1.1549827e-04  -1.6682073e-04  -2.9026803e-04  -1.9947990e-04   1.2378368e-05  -3.8174969e-05  -4.1828706e-05   7.1214159e-05  -5.8230560e-05   7.2117771e-05  -3.0468652e-05   9.2849535e-05   1.9408086e-05  -1.1797906e-05  -3.3091699e-05   1.8483770e-05  -9.8299915e-05   2.3612248e-05   1.8437414e-06  -5.5034992e-05   1.5089082e-05   6.2566205e-06  -3.9041604e-05   2.6153938e-05  -1.1049001e-04   2.2719900e-05  -3.8672146e-05  -8.0251233e-06  -2.6126965e-05  -4.9917819e-05  -4.6888390e-05   2.3086180e-05  -6.6421502e-05  -1.0534542e-04  -1.4983977e-04  -5.7342630e-05   5.1101418e-05   2.1754065e-04  -1.2219990e-04  -3.1221014e-05  -2.9440898e-05  -1.0720816e-04  -9.2183260e-05  -7.6099247e-06   6.7861640e-05   6.6758509e-05  -7.9034367e-05   1.0964107e-04   5.6542673e-05   1.0842949e-04   2.8651982e-04  -3.5701789e-05   4.9298386e-05   1.7204054e-04   5.0383764e-05  -5.6967264e-05   3.3453277e-05   8.2200043e-05   8.4272496e-05   1.0444686e-04   4.7258570e-05   6.4262042e-05   1.7537011e-06   4.3810829e-05   9.3656283e-06   6.9213208e-05  -4.7118030e-05   2.6737930e-05   8.8060685e-05   1.0666556e-04   6.8060084e-05   1.9972450e-04   5.0905728e-04   2.9514464e-04   9.9379722e-05   7.4038976e-05  -1.6570424e-04   1.7606019e-04   3.2246911e-04   3.1222412e-04  -1.5234645e-05  -1.6967532e-04  -1.1680140e-04  -3.7163234e-05  -6.3889479e-05  -7.8469053e-05  -4.9877066e-05   4.2506021e-05   4.2501462e-05  -5.2185669e-05  -3.7805899e-05   2.2841433e-06  -6.0370031e-05  -3.2614689e-05   1.1603299e-05   1.4954455e-05  -7.4670584e-05   5.0028677e-06  -3.5248230e-05  -5.9839380e-05  -1.3372974e-04  -4.5431514e-05  -6.7984980e-05  -4.9399098e-05  -9.7820551e-05  -9.4138045e-05  -1.7075787e-05  -3.5061508e-05  -6.5048529e-05  -9.0809207e-05  -1.4262920e-04  -9.2231536e-05  -4.8989442e-05  -1.3416302e-04  -2.4846008e-05  -6.7600149e-05  -1.1599807e-04  -9.1161172e-05  -6.6652867e-05   4.4990709e-05   6.3985894e-05   1.1483147e-05  -3.5896943e-05   5.4603336e-05  -4.0292305e-05   4.0385004e-05   1.5723294e-04   1.9446315e-04   9.0154055e-05   1.0566305e-04   6.4805259e-05  -1.1550761e-04   1.2752474e-04   1.6551588e-04  -7.0476769e-06   1.4201621e-04  -9.6477156e-05  -7.0652313e-05  -8.5192758e-05   1.0517598e-04  -1.8484067e-05  -3.4727367e-06   3.2360153e-05   4.2620624e-05   2.0654139e-04   6.7095619e-04  -5.1894720e-05  -4.7372146e-04  -9.8514220e-04  -3.1387933e-04   2.9993088e-05   9.8733396e-04  -8.2427418e-05  -1.8705082e-04  -5.5698674e-04  -4.9613336e-04  -4.4009283e-04   1.7826974e-04   7.0655081e-05   8.9286986e-05   8.0278859e-05   7.6701301e-05   6.2994055e-05  -3.1580714e-05  -4.6279255e-05   6.6074248e-05   9.3856768e-06   5.9933606e-05   9.2677898e-05   3.5124962e-05  -4.3400949e-05  -5.1242950e-05   2.9387587e-05   1.7883946e-05   9.5015755e-05   1.2080379e-04   1.1124117e-04   5.3234204e-05   3.8386385e-05   6.5648975e-05   1.7864766e-05   5.6243360e-05   2.3687875e-05   2.4944754e-05   6.6989524e-05   5.8391899e-05   1.0046926e-05  -1.7072053e-05   1.0282987e-04   9.5962814e-05  -1.1503593e-05   4.8480309e-05   5.7179200e-05   3.2689182e-05   4.8199210e-05   9.1364840e-05  -1.5605431e-04   2.6004493e-04  -1.7107956e-04   2.7197959e-04  -6.5096712e-05  -1.6912643e-05  -8.1102723e-05   1.5489381e-04   1.5074932e-04  -1.0199976e-04  -1.1052067e-04   1.7608528e-04  -5.9553087e-05   1.3122863e-04   3.3548071e-04  -7.4565081e-06  -1.0415849e-04   9.8209839e-05  -2.1020160e-04  -6.1989461e-07  -2.8330710e-04  -7.0393726e-05  -2.4922371e-04  -9.2551636e-06  -1.4058499e-05   1.2109927e-04  -1.7884826e-04  -8.8390700e-05  -2.3835533e-04  -4.0010743e-05   1.7926938e-04   7.9539111e-04  -5.5995053e-04  -3.0610051e-05  -1.0946480e-04  -2.8103844e-04  -3.8588546e-04   8.4920453e-05   1.5138425e-04   2.0556436e-04   5.1619783e-05   1.8595798e-04   5.6813237e-05   5.2958484e-05   2.9030767e-05   1.4499810e-04   9.8674326e-05  -1.1949807e-05   2.7675310e-05   2.0021661e-04   1.5240364e-05  -4.1491492e-05   8.6117248e-05  -6.4639271e-05  -2.6805454e-06   1.0682515e-04   4.5548662e-05   8.8086204e-05   5.4985615e-05   6.4953809e-05   9.9387705e-05   2.5497167e-05   6.9044543e-06  -1.3945301e-05   6.6611331e-06   6.7726376e-05  -6.8465480e-05   3.7416036e-07   6.5520332e-05   3.6352082e-04  -5.5184704e-05   4.5063602e-05   1.3380080e-04  -1.3925669e-04  -2.0232147e-04  -7.6175168e-05   1.5168248e-04  -4.1811009e-04   1.2156990e-04  -2.3304192e-04  -5.2226938e-05  -7.6750088e-05  -1.3566952e-04  -1.0033001e-04  -1.2049209e-04  -4.4025601e-04   9.4708058e-05  -4.5552531e-04  -1.0484863e-05   3.5788501e-06  -3.6337306e-04  -1.5040909e-04   1.0917491e-04  -2.0979739e-04  -1.4518103e-05   3.8545823e-05   2.7141899e-04  -1.1546060e-04   1.1491760e-04  -1.5531510e-04  -1.5451036e-04  -1.7593093e-04  -1.2956661e-04  -3.4594318e-04   1.0111864e-04  -1.4633974e-04  -9.8552845e-06  -1.3743637e-05   2.9787579e-04  -1.6198814e-04  -7.5873346e-05  -4.6734628e-05  -7.5792765e-05
   3.6358652e-05   2.8111375e-06   7.9499858e-05  -2.9837685e-05   2.8791691e-05   9.6480223e-06   2.6604088e-05   1.2940346e-05  -5.7570905e-06   7.6185601e-06   4.9789542e-05  -8.7528664e-06   1.4557253e-04   1.6355473e-05  -2.6904473e-05   3.9050878e-05   2.3330426e-05   8.3668305e-07   3.2795489e-05  -1.6687694e-05   1.8609604e-05  -3.9954540e-05   2.8217816e-06  -1.2803594e-05  -5.1596977e-05   6.2551820e-06   8.5807433e-06  -3.9822995e-05  -2.9225461e-05  -3.8684797e-05   1.3479348e-06   4.6818568e-06   8.5542516e-05   9.6059183e-06  -7.7380304e-06   3.4029497e-05   1.0624581e-05  -1.2968349e-05   1.9092698e-04  -6.0622440e-05  -3.0773216e-04  -4.5740947e-05  -4.4158712e-04  -2.8358163e-05  -1.9971565e-04  -2.3108741e-04  -5.2352467e-05  -6.8721717e-06   1.8696981e-04   1.1566688e-04   4.1920461e-05   6.3973594e-05  -8.6753836e-05  -1.0276197e-04   9.4519699e-05   2.0466549e-04  -9.3753404e-05   1.0110045e-04  -3.4172856e-05  -2.7084518e-04  -1.8403726e-04   4.3532726e-06  -1.6273805e-04   6.9419811e-05  -2.4077201e-04  -9.0347162e-05   5.6073404e-05   1.3160353e-04   2.2524072e-04  -1.2413323e-04  -1.7070245e-04   2.0528443e-04   4.0117994e-05   7.7607057e-05   8.1367371e-05   1.4637145e-04  -3.9701359e-04  -2.6352384e-04  -2.3360976e-04  -3.5599230e-04  -3.4728065e-04  -2.6696220e-04  -1.1913841e-04   3.7969418e-05  -1.4406221e-04  -2.0543589e-04  -2.3574776e-04  -3.1553934e-04  -4.0132313e-04  -2.5057696e-04   1.0324935e-04  -1.5077191e-04  -3.7266050e-04  -3.0094667e-04  -4.2070859e-04  -3.2652246e-04  -3.0939852e-04  -2.3572353e-04  -2.4056675e-04  -2.9521709e-04  -3.1017747e-04  -8.1814331e-05   1.3757301e-04  -1.9102822e-04  -4.3178876e-04  -2.5376756e-04  -3.7521885e-05  -3.1659287e-04  -2.8296564e-04  -1.3775884e-04  -1.9600559e-04  -4.5147618e-04  -2.9668844e-04   5.5185039e-05  -4.5977479e-05  -5.4557551e-05   7.1630888e-05  -5.8552308e-05   7.2036056e-05  -3.6365224e-05   9.4745698e-05   4.7800531e-06  -1.7692696e-05  -3.8623938e-05   1.1181613e-05  -1.0958833e-04   1.5125332e-05  -7.2327809e-06  -6.8874271e-05   8.7161070e-06   3.5527796e-06  -4.9479938e-05   1.8222913e-05  -1.2530864e-04   1.9536581e-05  -4.4694513e-05  -1.1955784e-05  -3.0816998e-05  -6.0002261e-05  -5.6954628e-05   4.1544248e-06  -7.2371638e-05  -1.1280775e-04  -1.6590988e-04  -6.2739524e-05   4.5097623e-05   2.0992295e-04  -1.2461399e-04  -3.1591907e-05  -2.9163419e-05  -1.1784111e-04  -9.7269212e-05   1.1540905e-06   7.4992065e-05   6.5521844e-05  -8.1318357e-05   1.1053000e-04   6.3161184e-05   1.1909968e-04   3.3884089e-04  -3.8743903e-05   5.6182191e-05   1.8268172e-04   6.3375849e-05  -6.8882333e-05   3.7450284e-05   9.9944115e-05   8.7538189e-05   1.1245162e-04   5.8666802e-05   7.6721951e-05   2.3496964e-05   5.3093555e-05   1.3422941e-05   7.6912570e-05  -4.3254089e-05   3.0509427e-05   9.8846430e-05   1.0610155e-04   7.8413088e-05   2.2620787e-04   5.7502991e-04   3.2773911e-04   1.0497726e-04   7.8581854e-05  -1.6071759e-04   1.9351181e-04   3.6292463e-04   3.3951460e-04  -1.5565198e-05  -1.8437509e-04  -1.2835137e-04  -4.8168648e-05  -7.0395930e-05  -8.7734173e-05  -5.5889252e-05   4.2032168e-05   4.9688534e-05  -5.1596551e-05  -4.1843100e-05  -4.1825534e-07  -6.5295494e-05  -5.2050047e-05   1.3108589e-05   2.6233096e-05  -8.1428760e-05   4.6674273e-06  -3.8563832e-05  -6.7766967e-05  -1.4318209e-04  -5.0306218e-05  -7.3259796e-05  -5.4719619e-05  -1.0543965e-04  -9.9273219e-05  -1.6468678e-05  -3.2477999e-05  -6.7750636e-05  -1.0465855e-04  -1.6236248e-04  -1.0241342e-04  -5.0960517e-05  -1.4555006e-04  -2.8959565e-05  -7.5920956e-05  -1.3727221e-04  -1.0863271e-04  -7.1963890e-05   6.9359390e-05   8.4588416e-05   1.7922296e-05  -1.8487099e-05   6.5696843e-05  -3.9887545e-05   6.4407014e-05   1.7301188e-04   2.0798051e-04   1.0242841e-04   1.2383675e-04   8.0678956e-05  -9.6661369e-05   1.4376505e-04   1.7614269e-04  -1.7047258e-05   1.6611187e-04  -8.6522423e-05  -7.1680930e-05  -8.9900848e-05   1.2318756e-04  -4.2113578e-06   9.1314329e-07   6.2147010e-05   6.0152306e-05   2.4096382e-04   7.2130986e-04  -5.1595809e-05  -4.9697180e-04  -1.0611095e-03  -3.1353302e-04   4.4728154e-05   1.0887770e-03  -6.4613836e-05  -2.0698358e-04  -6.0459592e-04  -5.2806333e-04  -4.3458555e-04   1.9928126e-04   7.7565180e-05   9.2127888e-05   9.7832293e-05   8.3018520e-05   6.8512545e-05  -3.0478047e-05  -4.8557925e-05   6.5688611e-05   8.3529467e-06   5.8969155e-05   9.7774017e-05   2.4082683e-05  -4.6711521e-05  -5.6204006e-05   2.0300214e-05   1.8092700e-05   1.0418434e-04   1.2716576e-04   1.1474061e-04   5.3345949e-05   4.1419919e-05   6.7956714e-05   1.8967440e-05   5.7564008e-05   2.3479719e-05   1.2531016e-05   7.1663767e-05   6.2824078e-05   2.7451574e-06  -2.3032842e-05   1.0400900e-04   9.8116692e-05  -3.2358788e-06   5.0770177e-05   5.8252157e-05   3.2314625e-05   4.9544740e-05   8.3093764e-05  -1.6754683e-04   2.5361453e-04  -1.4873440e-04   2.5762117e-04  -7.5402757e-05  -4.4122746e-05  -2.1767006e-04   1.1192242e-04   1.4331353e-04  -9.3456450e-05  -1.2496735e-04   2.0919420e-04  -1.1861582e-04   1.3855094e-05   2.9321763e-04  -5.9288189e-06  -1.0776582e-04   7.2240382e-05  -2.5693991e-04   1.9574751e-08  -2.9665248e-04  -7.7878329e-05  -2.3833448e-04   1.2553093e-05   4.5032842e-06   6.4926466e-05  -1.5918443e-04  -1.3974592e-04  -3.7952101e-04  -8.7896789e-05   1.5419343e-04   7.8336868e-04  -5.0017045e-04  -4.6184733e-05  -1.9070861e-04  -3.1746922e-04  -3.1962733e-04   8.8969181e-05   1.7943469e-04   2.0642738e-04   6.9537333e-05   1.9869022e-04   5.8203417e-05   4.6276068e-05   6.7289309e-06   1.4126201e-04   9.3720223e-05  -2.5889301e-05   2.7348827e-05   1.9281768e-04  -9.5209821e-07  -4.7544331e-05   7.3256096e-05  -8.4120392e-05  -1.0736317e-05   9.6796404e-05   3.6587406e-05   8.5144942e-05   6.4056413e-05   6.2395949e-05   1.0668338e-04   1.6806921e-05   7.7687206e-06  -2.3340309e-05   7.8469404e-06   7.7114274e-05  -6.1127398e-05   8.6821990e-06   5.2619195e-05   3.7019718e-04  -4.6403655e-05   4.3794397e-05   1.4550256e-04  -1.4703095e-04  -2.0174231e-04  -1.0638390e-04   1.5345807e-04  -4.7285352e-04   1.1377839e-04  -2.6630116e-04  -5.6552957e-05  -9.6601691e-05  -1.3918808e-04  -1.2495778e-04  -1.3103354e-04  -4.8410544e-04   1.0923045e-04  -5.0407668e-04  -1.3580743e-05  -2.8150068e-06  -4.1069325e-04  -1.7648989e-04   1.2102460e-04  -2.2748497e-04  -6.6098321e-06   2.4477250e-05   2.9835823e-04  -1.2585151e-04   1.1317451e-04  -1.6251116e-04  -1.6890179e-04  -1.9533652e-04  -1.2792281e-04  -3.6330275e-04   1.2121381e-04  -1.6218894e-04  -1.1051792e-05  -2.9139571e-05   3.2333357e-04  -1.7467063e-04  -7.9810490e-05  -2.4182419e-05  -7.9284872e-05
   3.6209143e-05   1.6394114e-06   8.6001496e-05  -3.2294429e-05   2.9622440e-05   6.9102173e-06   2.9684151e-05   1.1705989e-05  -1.1085179e-05   1.2959706e-06   4.6609840e-05  -1.5818679e-05   1.5519759e-04   1.7476476e-05  -3.0950065e-05   3.2956796e-05   2.0639387e-05  -5.5378998e-06   2.9111933e-05  -2.6102825e-05   1.5720095e-05  -4.4076082e-05   2.1384352e-07  -1.9815473e-05  -6.1415913e-05   6.2388814e-07   6.7605962e-06  -4.8802890e-05  -3.7413157e-05  -4.6282475e-05   1.6241031e-06  -5.6051449e-07   7.9426456e-05   9.8987126e-06  -1.3218419e-05   3.0833119e-05   6.7126056e-06  -1.0459031e-05   2.0787493e-04  -5.2898571e-05  -3.3372017e-04  -1.4856347e-05  -4.7006452e-04  -2.2564610e-05  -2.0382487e-04  -2.4504485e-04  -5.9454783e-05  -2.3072436e-08   2.0820127e-04   1.3864955e-04   5.6296030e-05   7.0718192e-05  -8.5519053e-05  -1.1014666e-04   1.0134341e-04   2.3321821e-04  -1.0830262e-04   1.1270705e-04  -4.1540773e-05  -2.6167498e-04  -1.8389945e-04   1.8994024e-05  -1.5932163e-04   7.7814078e-05  -2.6184250e-04  -9.7722017e-05   5.5776353e-05   1.3136466e-04   2.3882114e-04  -1.4386580e-04  -1.8754976e-04   2.4727684e-04   3.5345547e-05   7.2834785e-05   8.3414691e-05   1.8141562e-04  -4.1469559e-04  -2.7744664e-04  -2.5953973e-04  -3.6663895e-04  -3.7649061e-04  -2.8012619e-04  -9.1796461e-05   8.8821770e-05  -1.2464104e-04  -2.1179121e-04  -2.4178441e-04  -3.2783666e-04  -4.5105809e-04  -2.6415343e-04   1.6680825e-04  -1.5495422e-04  -3.9265651e-04  -3.1223825e-04  -4.5827904e-04  -3.6164912e-04  -3.1782472e-04  -2.3870376e-04  -2.5443451e-04  -3.1108788e-04  -3.2497349e-04  -7.2461437e-05   1.9042937e-04  -1.7978873e-04  -5.2217105e-04  -4.6800604e-04  -1.4042034e-04  -3.2812898e-04  -3.1351392e-04  -1.5984932e-04  -2.2582796e-04  -6.2434537e-04  -4.0208695e-04   9.6919059e-05  -5.2556069e-05  -6.6655649e-05   6.9314097e-05  -5.6815819e-05   6.9630895e-05  -4.1716921e-05   9.3903879e-05  -1.0540961e-05  -2.3556025e-05  -4.3901868e-05   2.5017407e-06  -1.1867759e-04   4.5162602e-06  -1.6416927e-05  -8.1799141e-05   1.2197390e-06   2.1828520e-07  -5.9357930e-05   9.1025351e-06  -1.3731778e-04   1.5475068e-05  -4.9155279e-05  -1.5641134e-05  -3.5095599e-05  -6.9302800e-05  -6.7092135e-05  -1.7055654e-05  -7.6617925e-05  -1.1717359e-04  -1.7739317e-04  -6.6931072e-05   3.7116119e-05   1.9405259e-04  -1.2391196e-04  -3.0795481e-05  -2.7800992e-05  -1.2578037e-04  -1.0002962e-04   1.1766663e-05   8.1767553e-05   6.1115295e-05  -8.1091010e-05   1.0807979e-04   6.9019554e-05   1.2867713e-04   3.8612675e-04  -4.1926405e-05   6.2817212e-05   1.9086668e-04   7.7781281e-05  -8.0975859e-05   3.9469042e-05   1.1719603e-04   8.7873860e-05   1.1984804e-04   7.1076384e-05   8.7912693e-05   4.8034066e-05   6.2813843e-05   1.8487947e-05   8.3839015e-05  -3.7398124e-05   3.4510384e-05   1.0986297e-04   1.0219914e-04   8.8083445e-05   2.5173982e-04   6.3474843e-04   3.5555871e-04   1.0753173e-04   7.7688071e-05  -1.4927967e-04   2.0890092e-04   4.0212570e-04   3.6190019e-04  -1.5539618e-05  -1.9660918e-04  -1.3802992e-04  -5.9404924e-05  -7.5735386e-05  -9.5894889e-05  -6.1028188e-05   4.0033097e-05   5.6526481e-05  -4.9302295e-05  -4.4948977e-05  -2.9281587e-06  -6.8901696e-05  -7.3319973e-05   1.4383449e-05   3.8288703e-05  -8.6252697e-05   4.9609083e-06  -4.0511403e-05  -7.4828637e-05  -1.4995921e-04  -5.4349306e-05  -7.6606391e-05  -5.9053236e-05  -1.1117199e-04  -1.0201433e-04  -1.4891955e-05  -2.7922120e-05  -6.8707654e-05  -1.1748147e-04  -1.7882060e-04  -1.1021464e-04  -5.1630221e-05  -1.5460942e-04  -3.2621629e-05  -8.3023397e-05  -1.5689649e-04  -1.2455439e-04  -7.6047378e-05   9.4903793e-05   1.0529307e-04   2.6788062e-05   1.5567815e-06   7.7320069e-05  -3.7273515e-05   9.0548657e-05   1.8600726e-04   2.1774505e-04   1.1484130e-04   1.4571862e-04   9.8198039e-05  -6.9576878e-05   1.6043462e-04   1.8322071e-04  -2.7500743e-05   1.9112020e-04  -7.2569611e-05  -7.0218855e-05  -9.1252889e-05   1.4191699e-04   1.1063812e-05   7.2415202e-06   9.3949475e-05   7.6006676e-05   2.7623497e-04   7.5827682e-04  -5.1608513e-05  -5.0810685e-04  -1.1171498e-03  -3.0456051e-04   5.9938369e-05   1.1748420e-03  -4.1878302e-05  -2.2174830e-04  -6.3735450e-04  -5.5052389e-04  -4.1984462e-04   2.1716976e-04   8.2509749e-05   9.2434384e-05   1.1421480e-04   8.7374820e-05   7.2383382e-05  -3.0348886e-05  -5.0184540e-05   6.2785794e-05   5.4079549e-06   5.4491469e-05   1.0004534e-04   9.2908778e-06  -5.0863412e-05  -6.1214262e-05   7.6988908e-06   1.6476735e-05   1.1139657e-04   1.3034325e-04   1.1478894e-04   5.1109885e-05   4.2810112e-05   6.7580002e-05   1.8050807e-05   5.6791957e-05   2.0838262e-05  -3.0602228e-06   7.4603030e-05   6.5618001e-05  -5.6150000e-06  -3.1182609e-05   1.0270827e-04   9.7472982e-05   5.6260978e-06   5.1338272e-05   5.7725283e-05   3.0035734e-05   4.7658422e-05   7.5271528e-05  -1.7670511e-04   2.4578184e-04  -1.1989952e-04   2.3973354e-04  -8.1455713e-05  -7.5655233e-05  -3.6397537e-04   7.1016402e-05   1.3836550e-04  -7.4323242e-05  -1.3267165e-04   2.4471269e-04  -1.7124969e-04  -1.1085560e-04   2.4882742e-04   2.8135061e-06  -1.0048559e-04   5.0425468e-05  -2.9575336e-04   3.8381865e-06  -3.0451520e-04  -8.1125982e-05  -2.1606860e-04   4.3626787e-05   2.9191656e-05   1.1043721e-05  -1.2609984e-04  -1.9837477e-04  -5.3030190e-04  -1.3549575e-04   1.3147817e-04   7.7396423e-04  -4.2266485e-04  -6.1399691e-05  -2.8237462e-04  -3.5112722e-04  -2.3105634e-04   9.1033173e-05   2.0890858e-04   2.0163352e-04   8.9522547e-05   2.0653866e-04   5.8534411e-05   3.7491852e-05  -1.6965001e-05   1.3257697e-04   8.4752579e-05  -4.2243533e-05   2.7479313e-05   1.7798563e-04  -1.9285921e-05  -5.0808288e-05   5.5784450e-05  -1.0662374e-04  -1.8961692e-05   8.1780825e-05   2.6542827e-05   7.9230279e-05   7.4850693e-05   5.7740254e-05   1.1346379e-04   7.1386952e-06   8.0787294e-06  -3.4784623e-05   9.8517683e-06   8.5640719e-05  -5.0668363e-05   1.6948477e-05   3.5499681e-05   3.6705149e-04  -3.1711017e-05   4.0821648e-05   1.5360620e-04  -1.5288235e-04  -1.9753023e-04  -1.4100466e-04   1.4969950e-04  -5.2017796e-04   9.7883646e-05  -2.9624811e-04  -5.9428901e-05  -1.1865719e-04  -1.4115034e-04  -1.5030414e-04  -1.4021851e-04  -5.2458902e-04   1.2205052e-04  -5.4669337e-04  -1.8381893e-05  -9.1028166e-06  -4.5315444e-04  -2.0525976e-04   1.3091016e-04  -2.3965472e-04   3.1595708e-06   8.0970468e-06   3.2039735e-04  -1.3380220e-04   1.0796323e-04  -1.6510196e-04  -1.8273877e-04  -2.1268688e-04  -1.2249817e-04  -3.7417772e-04   1.3788478e-04  -1.7893065e-04  -9.5258579e-06  -4.5182395e-05   3.4002066e-04  -1.8455989e-04  -8.4165915e-05   3.1769281e-06  -7.9983837e-05
   3.5339964e-05   4.3685802e-07   9.1358892e-05  -3.4330992e-05   3.0034286e-05   3.7538464e-06   3.2499900e-05   1.0278064e-05  -1.6473886e-05  -5.5493552e-06   4.2189758e-05  -2.3275264e-05   1.6256154e-04   1.8661619e-05  -3.4593692e-05   2.5845307e-05   1.7072970e-05  -1.2279721e-05   2.4859599e-05  -3.5587700e-05   1.2352491e-05  -4.7688076e-05  -2.4916147e-06  -2.7122466e-05  -7.0675900e-05  -5.5590147e-06   4.9356196e-06  -5.7607931e-05  -4.5474494e-05  -5.3048366e-05   2.0321657e-06  -5.7904126e-06   7.1888160e-05   9.0836531e-06  -1.8725957e-05   2.6598434e-05   2.2780692e-06  -7.7503262e-06   2.2262924e-04  -4.2341953e-05  -3.5459063e-04   2.1543806e-05  -4.9125079e-04  -1.4136006e-05  -2.0183790e-04  -2.5371583e-04  -6.5717023e-05   8.4344972e-06   2.2699120e-04   1.6294594e-04   7.4351281e-05   7.5733578e-05  -8.3793649e-05  -1.1336208e-04   1.0735152e-04   2.6200073e-04  -1.2028085e-04   1.2526895e-04  -4.9242446e-05  -2.4236069e-04  -1.7756790e-04   3.6147170e-05  -1.5075033e-04   8.6115276e-05  -2.7589607e-04  -1.0075589e-04   5.5162133e-05   1.2788261e-04   2.4623487e-04  -1.6096479e-04  -2.0906085e-04   2.8982787e-04   2.8641369e-05   6.3419372e-05   8.8302845e-05   2.2935150e-04  -4.2879877e-04  -2.8785715e-04  -2.8588305e-04  -3.7346083e-04  -4.0358727e-04  -2.9121268e-04  -6.6421347e-05   1.2869010e-04  -1.0422923e-04  -2.1449947e-04  -2.4305547e-04  -3.3781424e-04  -4.9943634e-04  -2.7888567e-04   2.2002226e-04  -1.5962621e-04  -4.0482088e-04  -3.1989437e-04  -4.9269260e-04  -3.9913908e-04  -3.1988932e-04  -2.3684839e-04  -2.6467949e-04  -3.2162626e-04  -3.3632823e-04  -5.9807062e-05   2.4847696e-04  -1.6395431e-04  -6.1520884e-04  -6.9124395e-04  -2.5176508e-04  -3.3159476e-04  -3.3576097e-04  -1.8186188e-04  -2.5511494e-04  -7.9888977e-04  -5.0957246e-04   1.3283906e-04  -5.7531129e-05  -7.7554771e-05   6.4312933e-05  -5.3003726e-05   6.5069308e-05  -4.6266833e-05   9.0461226e-05  -2.5601389e-05  -2.9062860e-05  -4.8695277e-05  -7.1110447e-06  -1.2515978e-04  -7.7821456e-06  -2.5177710e-05  -9.3207045e-05  -7.0213623e-06  -3.5399119e-06  -6.8202226e-05  -7.2923742e-07  -1.4599402e-04   1.0754349e-05  -5.1703007e-05  -1.8859831e-05  -3.8812832e-05  -7.7341984e-05  -7.6970670e-05  -3.9563074e-05  -7.8901881e-05  -1.1816080e-04  -1.8348121e-04  -6.9708354e-05   2.7634638e-05   1.7063328e-04  -1.2034895e-04  -2.8816347e-05  -2.5362231e-05  -1.3060146e-04  -1.0039747e-04   2.3835396e-05   8.8249817e-05   5.3515790e-05  -7.8232399e-05   1.0246472e-04   7.3973358e-05   1.3660407e-04   4.2567227e-04  -4.5427182e-05   6.8911447e-05   1.9658934e-04   9.3262017e-05  -9.3058050e-05   3.8865964e-05   1.3325630e-04   8.5120664e-05   1.2667694e-04   8.4338630e-05   9.7351657e-05   7.4589145e-05   7.2827781e-05   2.4593621e-05   8.9810931e-05  -2.9711148e-05   3.8745687e-05   1.2097173e-04   9.5407732e-05   9.6771855e-05   2.7555732e-04   6.8531524e-04   3.7705877e-04   1.0703425e-04   7.0768285e-05  -1.3158549e-04   2.2179860e-04   4.3869042e-04   3.7856193e-04  -1.5106503e-05  -2.0622700e-04  -1.4559364e-04  -7.0427344e-05  -7.9814571e-05  -1.0268991e-04  -6.5065291e-05   3.6646590e-05   6.2775659e-05  -4.5426344e-05  -4.6926708e-05  -4.9333729e-06  -7.1036514e-05  -9.5783451e-05   1.5367012e-05   5.0516681e-05  -8.8914225e-05   6.1186176e-06  -4.0856585e-05  -8.0692235e-05  -1.5386744e-04  -5.7367985e-05  -7.7814938e-05  -6.2175324e-05  -1.1486042e-04  -1.0227259e-04  -1.2281193e-05  -2.1391106e-05  -6.7889315e-05  -1.2867053e-04  -1.9134445e-04  -1.1531941e-04  -5.0933844e-05  -1.6108305e-04  -3.5669696e-05  -8.8512290e-05  -1.7392887e-04  -1.3802135e-04  -7.8984033e-05   1.2033544e-04   1.2499388e-04   3.7553379e-05   2.2807791e-05   8.8969226e-05  -3.2711995e-05   1.1747511e-04   1.9560905e-04   2.2306766e-04   1.2660376e-04   1.7074791e-04   1.1647604e-04  -3.5544052e-05   1.7735023e-04   1.8654911e-04  -3.8489593e-05   2.1621562e-04  -5.5368083e-05  -6.6472800e-05  -8.9274607e-05   1.6084426e-04   2.6166145e-05   1.5127239e-05   1.2591936e-04   8.8617657e-05   3.1113134e-04   7.8099821e-04  -5.2886811e-05  -5.0732675e-04  -1.1515731e-03  -2.8791676e-04   7.4890898e-05   1.2436151e-03  -1.5287354e-05  -2.3099306e-04  -6.5370999e-04  -5.6339803e-04  -3.9740694e-04   2.3109346e-04   8.5136589e-05   9.0196646e-05   1.2864994e-04   8.9492666e-05   7.4389315e-05  -3.1599971e-05  -5.1105878e-05   5.7399489e-05   4.2413789e-07   4.6308679e-05   9.9335503e-05  -8.9014655e-06  -5.5988672e-05  -6.6360521e-05  -8.2574035e-06   1.2871986e-05   1.1628986e-04   1.3021897e-04   1.1142194e-04   4.6455941e-05   4.2448232e-05   6.4447948e-05   1.4905739e-05   5.4015073e-05   1.5532786e-05  -2.1598810e-05   7.5749954e-05   6.6807253e-05  -1.4445675e-05  -4.1616189e-05   9.9038191e-05   9.3754683e-05   1.4552823e-05   5.0109425e-05   5.5663722e-05   2.5745884e-05   4.2107897e-05   6.9898262e-05  -1.8258874e-04   2.3815606e-04  -8.5531181e-05   2.2050785e-04  -8.2537270e-05  -1.0871288e-04  -5.0962746e-04   3.5560998e-05   1.3730827e-04  -4.4991762e-05  -1.3237817e-04   2.8086564e-04  -2.1207416e-04  -2.3279111e-04   2.0611785e-04   1.9578506e-05  -8.2004190e-05   3.4924084e-05  -3.2390695e-04   1.1347077e-05  -3.0644508e-04  -7.9527614e-05  -1.8308069e-04   8.3963823e-05   6.0104086e-05  -3.5593246e-05  -8.0042679e-05  -2.6220634e-04  -6.8214287e-04  -1.7821389e-04   1.1363503e-04   7.7306604e-04  -3.3168546e-04  -7.5257713e-05  -3.7973857e-04  -3.8100568e-04  -1.2355098e-04   9.1574119e-05   2.3957206e-04   1.9152301e-04   1.1115644e-04   2.0912637e-04   5.8108935e-05   2.7033242e-05  -4.0641481e-05   1.1947188e-04   7.2243236e-05  -6.0303920e-05   2.8716540e-05   1.5683707e-04  -3.8822574e-05  -5.0819578e-05   3.4603293e-05  -1.3158753e-04  -2.6622134e-05   6.2667107e-05   1.6426507e-05   7.0815122e-05   8.7707212e-05   5.1454749e-05   1.2013488e-04  -2.7329852e-06   8.0141813e-06  -4.7686164e-05   1.2956586e-05   9.3177684e-05  -3.7215072e-05   2.4919664e-05   1.5021217e-05   3.5471535e-04  -1.1213901e-05   3.6343950e-05   1.5779624e-04  -1.5693829e-04  -1.9047835e-04  -1.7910518e-04   1.4066120e-04  -5.5817463e-04   7.4346258e-05  -3.2172281e-04  -6.0524731e-05  -1.4290215e-04  -1.4268031e-04  -1.7560669e-04  -1.4779393e-04  -5.6167658e-04   1.3285905e-04  -5.8217291e-04  -2.5205639e-05  -1.5256512e-05  -4.8948834e-04  -2.3673207e-04   1.3797692e-04  -2.4597809e-04   1.4450938e-05  -9.9480193e-06   3.3703364e-04  -1.3900670e-04   9.9721262e-05  -1.6291111e-04  -1.9578136e-04  -2.2760492e-04  -1.1343620e-04  -3.7855868e-04   1.5050043e-04  -1.9644869e-04  -5.1353659e-06  -6.1860927e-05   3.4735377e-04  -1.9143224e-04  -8.8965042e-05   3.4583948e-05  -7.7688207e-05
   3.3811785e-05  -8.2624040e-07   9.5400754e-05  -3.5953873e-05   3.0023755e-05   2.6088983e-07   3.5085979e-05   8.8456597e-06  -2.1701118e-05  -1.2632767e-05   3.6740406e-05  -3.0903584e-05   1.6750122e-04   1.9964795e-05  -3.7625980e-05   1.8079589e-05   1.2730097e-05  -1.9140189e-05   2.0234639e-05  -4.4822563e-05   8.6278430e-06  -5.0765243e-05  -5.2112879e-06  -3.4550867e-05  -7.9143764e-05  -1.2085963e-05   3.0886798e-06  -6.6051388e-05  -5.3241756e-05  -5.8751022e-05   2.5004892e-06  -1.0793999e-05   6.3517154e-05   6.9941346e-06  -2.4082242e-05   2.1471451e-05  -2.5283375e-06  -5.0733156e-06   2.3523049e-04  -2.9532305e-05  -3.6939505e-04   6.2051735e-05  -5.0468014e-04  -3.2626945e-06  -1.9342379e-04  -2.5609168e-04  -7.0701844e-05   1.8354478e-05   2.4285445e-04   1.8791922e-04   9.6048226e-05   7.9387622e-05  -8.1449032e-05  -1.1201283e-04   1.1257810e-04   2.9028263e-04  -1.2907851e-04   1.3857846e-04  -5.7190254e-05  -2.1375531e-04  -1.6523273e-04   5.5039796e-05  -1.3749055e-04   9.4176371e-05  -2.8216677e-04  -9.9006044e-05   5.5061500e-05   1.2204569e-04   2.4826136e-04  -1.7488086e-04  -2.3528886e-04   3.3150172e-04   2.0694589e-05   5.0147018e-05   9.7028902e-05   2.9073711e-04  -4.4008628e-04  -2.9522085e-04  -3.1224901e-04  -3.7778184e-04  -4.2853676e-04  -3.0071718e-04  -4.5993766e-05   1.5115097e-04  -8.4299848e-05  -2.1350738e-04  -2.3978105e-04  -3.4634976e-04  -5.4492027e-04  -2.9622131e-04   2.5516275e-04  -1.6540040e-04  -4.0896136e-04  -3.2486631e-04  -5.2380175e-04  -4.3933231e-04  -3.1584720e-04  -2.3079719e-04  -2.7139037e-04  -3.2738491e-04  -3.4524142e-04  -4.4237444e-05   3.0987513e-04  -1.4530650e-04  -7.0693725e-04  -9.0685886e-04  -3.6228158e-04  -3.2716352e-04  -3.4740076e-04  -2.0411033e-04  -2.8250211e-04  -9.6412293e-04  -6.1218930e-04   1.5787686e-04  -6.0652886e-05  -8.6802108e-05   5.6855482e-05  -4.7209146e-05   5.8648784e-05  -4.9804801e-05   8.4705728e-05  -3.9493366e-05  -3.3925485e-05  -5.2794001e-05  -1.7149084e-05  -1.2878083e-04  -2.1241404e-05  -3.3044573e-05  -1.0260171e-04  -1.5590239e-05  -7.4684913e-06  -7.5612007e-05  -1.0773579e-05  -1.5104526e-04   5.6243426e-06  -5.2108946e-05  -2.1428407e-05  -4.1870312e-05  -8.3724159e-05  -8.6274154e-05  -6.2356144e-05  -7.9069445e-05  -1.1567629e-04  -1.8366547e-04  -7.0947122e-05   1.7207044e-05   1.4076658e-04  -1.1431901e-04  -2.5697283e-05  -2.1892331e-05  -1.3204778e-04  -9.8465818e-05   3.6907320e-05   9.4545203e-05   4.2897392e-05  -7.2756832e-05   9.4063696e-05   7.7939945e-05   1.4228030e-04   4.5517028e-04  -4.9381818e-05   7.4190294e-05   1.9993357e-04   1.0938884e-04  -1.0496305e-04   3.5109980e-05   1.4749028e-04   7.9328910e-05   1.3296430e-04   9.8276396e-05   1.0471844e-04   1.0234893e-04   8.3012460e-05   3.1737750e-05   9.4706651e-05  -2.0395315e-05   4.3258806e-05   1.3199220e-04   8.6443741e-05   1.0428626e-04   2.9690962e-04   7.2419533e-04   3.9089283e-04   1.0373863e-04   5.7788889e-05  -1.0815816e-04   2.3187137e-04   4.7115541e-04   3.8890381e-04  -1.4205509e-05  -2.1316209e-04  -1.5089017e-04  -8.0776915e-05  -8.2618465e-05  -1.0790397e-04  -6.7811477e-05   3.2088826e-05   6.8209771e-05  -4.0147652e-05  -4.7614756e-05  -6.1281211e-06  -7.1600106e-05  -1.1872933e-04   1.6008600e-05   6.2280866e-05  -8.9277262e-05   8.3445456e-06  -3.9436902e-05  -8.5044392e-05  -1.5481271e-04  -5.9205721e-05  -7.6778557e-05  -6.3903260e-05  -1.1643301e-04  -1.0006743e-04  -8.6091607e-06  -1.2952165e-05  -6.5330285e-05  -1.3765822e-04  -1.9938759e-04  -1.1756612e-04  -4.8844419e-05  -1.6481215e-04  -3.7978886e-05  -9.2049018e-05  -1.8752625e-04  -1.4822121e-04  -8.0902868e-05   1.4427635e-04   1.4256249e-04   4.9461940e-05   4.3693558e-05   1.0005929e-04  -2.6677052e-05   1.4374279e-04   2.0137638e-04   2.2337162e-04   1.3677748e-04   1.9795413e-04   1.3440181e-04   3.6847972e-06   1.9433057e-04   1.8615652e-04  -5.0199286e-05   2.4045351e-04  -3.5884523e-05  -6.0859020e-05  -8.4276315e-05   1.7937386e-04   3.9896983e-05   2.3987756e-05   1.5611099e-04   9.6537246e-05   3.4426033e-04   7.8937467e-04  -5.6430552e-05  -4.9556141e-04  -1.1636691e-03  -2.6495544e-04   8.8830149e-05   1.2941674e-03   1.3846453e-05  -2.3482448e-04  -6.5303168e-04  -5.6705570e-04  -3.6907928e-04   2.4043197e-04   8.5243589e-05   8.5554430e-05   1.4052364e-04   8.9221449e-05   7.4438347e-05  -3.4494858e-05  -5.1271051e-05   4.9706995e-05  -6.5557758e-06   3.4456407e-05   9.5683103e-05  -2.9930198e-05  -6.2118971e-05  -7.1725247e-05  -2.7216065e-05   7.2636779e-06   1.1862909e-04   1.2686972e-04   1.0489711e-04   3.9459177e-05   4.0375874e-05   5.8683632e-05   9.5175177e-06   4.9492601e-05   7.5263795e-06  -4.2719433e-05   7.5187540e-05   6.6582018e-05  -2.3089572e-05  -5.4260974e-05   9.3206361e-05   8.6779275e-05   2.3049102e-05   4.7126195e-05   5.2224718e-05   1.9451302e-05   3.2667558e-05   6.8962690e-05  -1.8424754e-04   2.3209574e-04  -4.6689354e-05   2.0205173e-04  -7.8289217e-05  -1.3984059e-04  -6.4340427e-04   8.2211148e-06   1.4107140e-04  -6.6017431e-06  -1.2335319e-04   3.1535776e-04  -2.3626951e-04  -3.4165084e-04   1.6829458e-04   4.4600757e-05  -5.2834817e-05   2.7223196e-05  -3.3943763e-04   2.2810202e-05  -3.0216312e-04  -7.2821422e-05  -1.4072667e-04   1.3288911e-04   9.7037807e-05  -7.0624683e-05  -2.2321721e-05  -3.2865225e-04  -8.2595631e-04  -2.1126327e-04   1.0256818e-04   7.8559694e-04  -2.3204442e-04  -8.6854833e-05  -4.7727599e-04  -4.0618445e-04  -1.6457489e-06   9.1257785e-05   2.7115563e-04   1.7664315e-04   1.3391405e-04   2.0635277e-04   5.7267699e-05   1.5370054e-05  -6.3017256e-05   1.0270561e-04   5.6857541e-05  -7.9222590e-05   3.1669165e-05   1.3087338e-04  -5.8554547e-05  -4.7428013e-05   1.0830428e-05  -1.5823145e-04  -3.2980027e-05   4.0620132e-05   7.2414286e-06   6.0539377e-05   1.0284796e-04   4.4107153e-05   1.2713625e-04  -1.2035323e-05   7.8158439e-06  -6.1284109e-05   1.7392840e-05   9.9654640e-05  -2.1020890e-05   3.2380821e-05  -7.6989288e-06   3.3431586e-04   1.4562169e-05   3.0629296e-05   1.5794873e-04  -1.5943587e-04  -1.8146527e-04  -2.1963436e-04   1.2684887e-04  -5.8553543e-04   4.4127606e-05  -3.4189253e-04  -5.9623991e-05  -1.6938648e-04  -1.4518127e-04  -2.0017353e-04  -1.5357964e-04  -5.9561246e-04   1.4149503e-04  -6.0968069e-04  -3.4330402e-05  -2.1514727e-05  -5.1885183e-04  -2.7084422e-04   1.4135927e-04  -2.4658476e-04   2.6779474e-05  -2.9021629e-05   3.4804748e-04  -1.4134452e-04   8.8972433e-05  -1.5609445e-04  -2.0778015e-04  -2.3995323e-04  -1.0109169e-04  -3.7673484e-04   1.5882922e-04  -2.1452147e-04   1.9243994e-06  -7.9442093e-05   3.4544705e-04  -1.9524253e-04  -9.4079207e-05   6.9064566e-05  -7.2468086e-05
   3.1694495e-05  -2.2084002e-06   9.7995129e-05  -3.7190306e-05   2.9580078e-05  -3.4890607e-06   3.7501735e-05   7.6219833e-06  -2.6573297e-05  -1.9678951e-05   3.0484112e-05  -3.8493555e-05   1.6992748e-04   2.1424225e-05  -3.9846727e-05   1.0017316e-05   7.7270983e-06  -2.5892875e-05   1.5403932e-05  -5.3534677e-05   4.6560065e-06  -5.3319544e-05  -7.8861276e-06  -4.1947265e-05  -8.6656256e-05  -1.8758901e-05   1.1373388e-06  -7.3994466e-05  -6.0591456e-05  -6.3238546e-05   2.9379695e-06  -1.5419847e-05   5.4852605e-05   3.5652188e-06  -2.9141765e-05   1.5630877e-05  -7.5522712e-06  -2.6682264e-06   2.4590313e-04  -1.5135583e-05  -3.7737415e-04   1.0509230e-04  -5.1016249e-04   9.7252627e-06  -1.7848723e-04  -2.5125984e-04  -7.3996317e-05   2.9542977e-05   2.5557211e-04   2.1287926e-04   1.2111834e-04   8.2394272e-05  -7.8112647e-05  -1.0599435e-04   1.1713885e-04   3.1730982e-04  -1.3435371e-04   1.5229213e-04  -6.5287710e-05  -1.7720815e-04  -1.4742464e-04   7.4759438e-05  -1.2020747e-04   1.0187204e-04  -2.8039945e-04  -9.2367455e-05   5.6408236e-05   1.1509350e-04   2.4642795e-04  -1.8536390e-04  -2.6567053e-04   3.7094375e-04   1.2420253e-05   3.4253771e-05   1.1042890e-04   3.6519747e-04  -4.4945239e-04  -3.0023858e-04  -3.3812821e-04  -3.8114753e-04  -4.5137308e-04  -3.0916558e-04  -3.3247941e-05   1.5042203e-04  -6.6187834e-05  -2.0885749e-04  -2.3235809e-04  -3.5432537e-04  -5.8590032e-04  -3.1758288e-04   2.6494879e-04  -1.7270105e-04  -4.0528865e-04  -3.2827513e-04  -5.5158816e-04  -4.8234515e-04  -3.0624463e-04  -2.2145801e-04  -2.7482049e-04  -3.2932396e-04  -3.5297580e-04  -2.6275287e-05   3.7241847e-04  -1.2601171e-04  -7.9303103e-04  -1.0972708e-03  -4.6157733e-04  -3.1548925e-04  -3.4647142e-04  -2.2708071e-04  -3.0650672e-04  -1.1087679e-03  -7.0257311e-04   1.6696389e-04  -6.1820114e-05  -9.4088179e-05   4.7340147e-05  -3.9635336e-05   5.0780211e-05  -5.2179675e-05   7.7056938e-05  -5.1406982e-05  -3.7915685e-05  -5.6022736e-05  -2.7073941e-05  -1.2945500e-04  -3.5270009e-05  -3.9635977e-05  -1.0962008e-04  -2.4056529e-05  -1.1286203e-05  -8.1284434e-05  -2.0539382e-05  -1.5242746e-04   3.4526425e-07  -5.0280518e-05  -2.3210096e-05  -4.4226561e-05  -8.8166554e-05  -9.4716061e-05  -8.4455995e-05  -7.7087686e-05  -1.0982383e-04  -1.7776772e-04  -7.0623529e-05   6.4233422e-06   1.0587904e-04  -1.0633002e-04  -2.1539434e-05  -1.7470503e-05  -1.3004330e-04  -9.4492248e-05   5.0508097e-05   1.0079483e-04   2.9637321e-05  -6.4820912e-05   8.3439467e-05   8.0906657e-05   1.4511367e-04   4.7291784e-04  -5.3868247e-05   7.8409550e-05   2.0106772e-04   1.2566724e-04  -1.1653709e-04   2.7833990e-05   1.5937436e-04   7.0770911e-05   1.3871547e-04   1.1268743e-04   1.0987880e-04   1.3050382e-04   9.3269144e-05   3.9869035e-05   9.8471770e-05  -9.6848897e-06   4.8133946e-05   1.4271733e-04   7.6249702e-05   1.1055571e-04   3.1510134e-04   7.4947540e-04   3.9603922e-04   9.8158750e-05   3.9295237e-05  -7.9834610e-05   2.3890643e-04   4.9810695e-04   3.9261319e-04  -1.2769497e-05  -2.1742290e-04  -1.5385940e-04  -9.0001657e-05  -8.4211377e-05  -1.1137221e-04  -6.9126947e-05   2.6632663e-05   7.2619424e-05  -3.3682905e-05  -4.6895550e-05  -6.2334046e-06  -7.0548335e-05  -1.4140198e-04   1.6275641e-05   7.2956402e-05  -8.7297875e-05   1.1798058e-05  -3.6172127e-05  -8.7604855e-05  -1.5279532e-04  -5.9750008e-05  -7.3504754e-05  -6.4108463e-05  -1.1590034e-04  -9.5520430e-05  -3.8863922e-06  -2.7328193e-06  -6.1123089e-05  -1.4395373e-04  -2.0252539e-04  -1.1694704e-04  -4.5367695e-05  -1.6573443e-04  -3.9469995e-05  -9.3374898e-05  -1.9699357e-04  -1.5449070e-04  -8.1954905e-05   1.6535839e-04   1.5695008e-04   6.1573951e-05   6.2583589e-05   1.0995519e-04  -1.9798141e-05   1.6792919e-04   2.0307474e-04   2.1823419e-04   1.4433484e-04   2.2603855e-04   1.5074207e-04   4.6042628e-05   2.1121921e-04   1.8229124e-04  -6.2861868e-05   2.6284012e-04  -1.5227308e-05  -5.3964104e-05  -7.6818342e-05   1.9686600e-04   5.1124044e-05   3.3102917e-05   1.8262503e-04   9.8545293e-05   3.7417172e-04   7.8406639e-04  -6.3183572e-05  -4.7440473e-04  -1.1537089e-03  -2.3734230e-04   1.0103631e-04   1.3266150e-03   4.4041153e-05  -2.3377804e-04  -6.3565715e-04  -5.6231657e-04  -3.3681912e-04   2.4483264e-04   8.2803085e-05   7.8792483e-05   1.4942216e-04   8.6552761e-05   7.2575725e-05  -3.9129118e-05  -5.0634780e-05   4.0025106e-05  -1.5314798e-05   1.9206468e-05   8.9324372e-05  -5.3041163e-05  -6.9172118e-05  -7.7375225e-05  -4.8638306e-05  -2.0639773e-07   1.1832775e-04   1.2056476e-04   9.5679657e-05   3.0338655e-05   3.6790099e-05   5.0598317e-05   2.0795093e-06   4.3637197e-05  -3.0076502e-06  -6.5928327e-05   7.3130451e-05   6.5266278e-05  -3.0868834e-05  -6.8855136e-05   8.5505204e-05   7.6483793e-05   3.0690427e-05   4.2550033e-05   4.7652172e-05   1.1272200e-05   1.9343486e-05   7.4274663e-05  -1.8081405e-04   2.2864865e-04  -4.5201159e-06   1.8623723e-04  -6.8730034e-05  -1.6518123e-04  -7.5399650e-04  -9.2305460e-06   1.5005697e-04   3.9056477e-05  -1.0545794e-04   3.4548831e-04  -2.3989893e-04  -4.2764347e-04   1.3775368e-04   7.7539250e-05  -1.4264064e-05   2.8058679e-05  -3.4127332e-04   3.8219385e-05  -2.9162116e-04  -6.1131097e-05  -9.1026901e-05   1.8904448e-04   1.3948734e-04  -9.0552192e-05   4.4922621e-05  -3.9474845e-04  -9.5273446e-04  -2.2995631e-04   9.9480489e-05   8.1525475e-04  -1.2885522e-04  -9.5432314e-05  -5.6903734e-04  -4.2588052e-04   1.2916596e-04   9.0874461e-05   3.0334873e-04   1.5771094e-04   1.5717878e-04   1.9839735e-04   5.6348462e-05   2.9760427e-06  -8.3028637e-05   8.3200236e-05   3.9398957e-05  -9.8068165e-05   3.6830562e-05   1.0185111e-04  -7.7486518e-05  -4.0840003e-05  -1.4290470e-05  -1.8560258e-04  -3.7358882e-05   1.6993287e-05  -1.1358251e-07   4.9162617e-05   1.2032882e-04   3.6319158e-05   1.3488914e-04  -2.0064430e-05   7.7611495e-06  -7.4703446e-05   2.3316231e-05   1.0503491e-04  -2.4909506e-06   3.9132863e-05  -3.1366340e-05   3.0738870e-04   4.4672837e-05   2.3986219e-05   1.5411964e-04  -1.6071730e-04  -1.7140505e-04  -2.6151371e-04   1.0898487e-04  -6.0161880e-04   8.6159338e-06  -3.5632716e-04  -5.6648550e-05  -1.9822832e-04  -1.5026444e-04  -2.2342529e-04  -1.5749444e-04  -6.2687544e-04   1.4794550e-04  -6.2880563e-04  -4.5983074e-05  -2.8411767e-05  -5.4088082e-04  -3.0743366e-04   1.4023645e-04  -2.4205136e-04   3.9549689e-05  -4.8548713e-05   3.5350837e-04  -1.4089166e-04   7.6273676e-05  -1.4514750e-04  -2.1850911e-04  -2.4985329e-04  -8.6029868e-05  -3.6928835e-04   1.6303419e-04  -2.3284124e-04   1.1121705e-05  -9.8439691e-05   3.3508637e-04  -1.9614304e-04  -9.9236398e-05   1.0546007e-04  -6.4676185e-05
   2.9059215e-05  -3.7885222e-06   9.9052039e-05  -3.8081738e-05   2.8686304e-05  -7.4177127e-06   3.9822522e-05   6.8300425e-06  -3.0934398e-05  -2.6435232e-05   2.3639124e-05  -4.5850836e-05   1.6982331e-04   2.3060399e-05  -4.1078885e-05   1.9857309e-06   2.1914395e-06  -3.2345103e-05   1.0494108e-05  -6.1508011e-05   5.2842127e-07  -5.5395538e-05  -1.0481880e-05  -4.9182960e-05  -9.3123729e-05  -2.5399021e-05  -1.0594729e-06  -8.1347670e-05  -6.7442684e-05  -6.6435985e-05   3.2445702e-06  -1.9587381e-05   4.6325636e-05  -1.1577055e-06  -3.3794678e-05   9.2808768e-06  -1.2638751e-05  -7.6961944e-07   2.5502274e-04   1.4965872e-07  -3.7801059e-04   1.4902973e-04  -5.0780253e-04   2.4378362e-05  -1.5717371e-04  -2.3846694e-04  -7.5242797e-05   4.1772275e-05   2.6521044e-04   2.3712670e-04   1.4906968e-04   8.5759777e-05  -7.3193659e-05  -9.5506656e-05   1.2122835e-04   3.4232868e-04  -1.3606860e-04   1.6593301e-04  -7.3429528e-05  -1.3448962e-04  -1.2499549e-04   9.4307326e-05  -9.9703410e-05   1.0910572e-04  -2.7088215e-04  -8.1096184e-05   6.0160976e-05   1.0855638e-04   2.4288931e-04  -1.9247189e-04  -2.9905543e-04   4.0699106e-04   4.8905611e-06   1.7344313e-05   1.2911853e-04   4.5134299e-04  -4.5785579e-04  -3.0375377e-04  -3.6289462e-04  -3.8519651e-04  -4.7219204e-04  -3.1704955e-04  -3.0450942e-05   1.2187657e-04  -5.1011918e-05  -2.0067305e-04  -2.2130344e-04  -3.6253838e-04  -6.2077609e-04  -3.4425642e-04   2.4322994e-04  -1.8172399e-04  -3.9438170e-04  -3.3130341e-04  -5.7612974e-04  -5.2800586e-04  -2.9186594e-04  -2.0991754e-04  -2.7536272e-04  -3.2872797e-04  -3.6094406e-04  -6.5708446e-06   4.3364030e-04  -1.0847153e-04  -8.6903749e-04  -1.2450077e-03  -5.3882727e-04  -2.9766408e-04  -3.3146688e-04  -2.5136611e-04  -3.2560128e-04  -1.2218965e-03  -7.7342062e-04   1.5544296e-04  -6.1094488e-05  -9.9265945e-05   3.6313864e-05  -3.0587907e-05   4.1960643e-05  -5.3306788e-05   6.8031679e-05  -6.0671833e-05  -4.0882525e-05  -5.8254876e-05  -3.6352745e-05  -1.2727004e-04  -4.9248518e-05  -4.4685474e-05  -1.1404942e-04  -3.2008691e-05  -1.4706363e-05  -8.5034196e-05  -2.9573521e-05  -1.5034365e-04  -4.8279121e-06  -4.6268685e-05  -2.4124660e-05  -4.5898172e-05  -9.0523829e-05  -1.0205738e-04  -1.0497156e-04  -7.3048209e-05  -1.0089972e-04  -1.6595337e-04  -6.8823226e-05  -4.1353391e-06   6.7637412e-05  -9.6972712e-05  -1.6495911e-05  -1.2204251e-05  -1.2470183e-04  -8.8883619e-05   6.4182923e-05   1.0715892e-04   1.4294396e-05  -5.4720652e-05   7.1311071e-05   8.2926640e-05   1.4458273e-04   4.7797625e-04  -5.8891098e-05   8.1381659e-05   2.0023104e-04   1.4155872e-04  -1.2763694e-04   1.6869348e-05   1.6852493e-04   5.9926659e-05   1.4390957e-04   1.2735175e-04   1.1289190e-04   1.5829105e-04   1.0352705e-04   4.8892888e-05   1.0112353e-04   2.1712385e-06   5.3494873e-05   1.5291707e-04   6.5917099e-05   1.1563015e-04   3.2954955e-04   7.6005213e-04   3.9190492e-04   9.1031272e-05   1.6374739e-05  -4.7726504e-05   2.4283804e-04   5.1830470e-04   3.8969254e-04  -1.0732509e-05  -2.1907863e-04  -1.5452878e-04  -9.7682973e-05  -8.4727140e-05  -1.1298837e-04  -6.8929884e-05   2.0587925e-05   7.5818189e-05  -2.6264235e-05  -4.4699339e-05  -5.0163163e-06  -6.7894030e-05  -1.6303552e-04   1.6155835e-05   8.1967255e-05  -8.3014900e-05   1.6582202e-05  -3.1065877e-05  -8.8143080e-05  -1.4790601e-04  -5.8936911e-05  -6.8116157e-05  -6.2723018e-05  -1.1335027e-04  -8.8839161e-05   1.8402888e-06   9.0915335e-06  -5.5404124e-05  -1.4718051e-04  -2.0047883e-04  -1.1359894e-04  -4.0539123e-05  -1.6387715e-04  -4.0122007e-05  -9.2332942e-05  -2.0182973e-04  -1.5636250e-04  -8.2287840e-05   1.8232422e-04   1.6727730e-04   7.2864649e-05   7.7948650e-05   1.1803361e-04  -1.2805971e-05   1.8874169e-04   2.0069284e-04   2.0745788e-04   1.4825221e-04   2.5348160e-04   1.6421561e-04   8.9318249e-05   2.2791564e-04   1.7542982e-04  -7.6691542e-05   2.8241323e-04   5.4316382e-06  -4.6483401e-05  -6.7644851e-05   2.1270031e-04   5.8882631e-05   4.1675128e-05   2.0377008e-04   9.3769093e-05   3.9944277e-04   7.6646463e-04  -7.3962598e-05  -4.4600523e-04  -1.1229454e-03  -2.0689527e-04   1.1088940e-04   1.3420792e-03   7.3735355e-05  -2.2876813e-04  -6.0286084e-04  -5.5040173e-04  -3.0261793e-04   2.4424240e-04   7.7970092e-05   7.0328998e-05   1.5516592e-04   8.1625248e-05   6.8984804e-05  -4.5417610e-05  -4.9163016e-05   2.8794235e-05  -2.5465875e-05   1.0611390e-06   8.0686252e-05  -7.7332297e-05  -7.6962865e-05  -8.3353426e-05  -7.1821994e-05  -9.2444336e-06   1.1545698e-04   1.1174625e-04   8.4405756e-05   1.9449258e-05   3.2022049e-05   4.0672493e-05  -7.0253958e-06   3.6982153e-05  -1.5691540e-05  -9.0620137e-05   6.9909739e-05   6.3298114e-05  -3.7134448e-05  -8.4973353e-05   7.6297702e-05   6.2939518e-05   3.7151890e-05   3.6650160e-05   4.2256061e-05   1.4359773e-06   2.3758118e-06   8.7322085e-05  -1.7162952e-04   2.2847030e-04   3.9783743e-05   1.7458882e-04  -5.4258329e-05  -1.8074678e-04  -8.3072595e-04  -1.5991817e-05   1.6412149e-04   8.9676711e-05  -7.9156986e-05   3.6835182e-04  -2.2018405e-04  -4.8208404e-04   1.1594489e-04   1.1747596e-04   3.1761432e-05   3.7412519e-05  -3.2931665e-04   5.7283748e-05  -2.7506061e-04  -4.4957720e-05  -3.6582613e-05   2.5041759e-04   1.8662694e-04  -9.2957653e-05   1.1879047e-04  -4.5732995e-04  -1.0541336e-03  -2.3003128e-04   1.0481137e-04   8.6434189e-04  -2.7255029e-05  -1.0042892e-04  -6.4905331e-04  -4.3945106e-04   2.6269561e-04   9.1237346e-05   3.3577539e-04   1.3555693e-04   1.8026495e-04   1.8570562e-04   5.5646135e-05  -9.7073164e-06  -9.9926106e-05   6.1969184e-05   2.0751184e-05  -1.1588998e-04   4.4518124e-05   7.1633796e-05  -9.4700269e-05  -3.1653240e-05  -3.9494953e-05  -2.1263733e-04  -3.9202151e-05  -6.7765317e-06  -4.9415535e-06   3.7502583e-05   1.4001669e-04   2.8711395e-05   1.4374772e-04  -2.6247090e-05   8.1296705e-06  -8.7031489e-05   3.0775794e-05   1.0930388e-04   1.7791467e-05   4.4973739e-05  -5.4601471e-05   2.7576618e-04   7.7790197e-05   1.6738384e-05   1.4652208e-04  -1.6121485e-04  -1.6118531e-04  -3.0372886e-04   8.7927485e-05  -6.0649225e-04  -3.0490727e-05  -3.6502339e-04  -5.1668790e-05  -2.2961206e-04  -1.5966652e-04  -2.4493823e-04  -1.5955581e-04  -6.5611804e-04   1.5233163e-04  -6.3957338e-04  -6.0319796e-05  -3.6776524e-05  -5.5567531e-04  -3.4623731e-04   1.3391566e-04  -2.3336457e-04   5.2086650e-05  -6.8045879e-05   3.5374895e-04  -1.3791717e-04   6.2158315e-05  -1.3087479e-04  -2.2777457e-04  -2.5769002e-04  -6.9006331e-05  -3.5705560e-04   1.6364070e-04  -2.5104572e-04   2.1611675e-05  -1.1956286e-04   3.1762971e-04  -1.9446871e-04  -1.0404416e-04   1.4247589e-04  -5.4935386e-05
   2.5973599e-05  -5.6573176e-06   9.8534895e-05  -3.8680564e-05   2.7320301e-05  -1.1450693e-05   4.2128985e-05   6.6859916e-06  -3.4674522e-05  -3.2684192e-05   1.6408440e-05  -5.2806901e-05   1.6724206e-04   2.4871975e-05  -4.1179729e-05  -5.7355169e-06  -3.7437051e-06  -3.8346410e-05   5.5882261e-06  -6.8592120e-05  -3.6823020e-06  -5.7062081e-05  -1.2989727e-05  -5.6156563e-05  -9.8527481e-05  -3.1853766e-05  -3.6833406e-06  -8.8068419e-05  -7.3751050e-05  -6.8343950e-05   3.3175143e-06  -2.3290218e-05   3.8216576e-05  -7.0185580e-06  -3.7969934e-05   2.6415068e-06  -1.7638846e-05   4.0810137e-07   2.6305686e-04   1.5660268e-05  -3.7108378e-04   1.9228347e-04  -4.9800812e-04   4.0153090e-05  -1.2986087e-04  -2.1717618e-04  -7.4164319e-05   5.4784189e-05   2.7210386e-04   2.5998301e-04   1.7918772e-04   9.0704775e-05  -6.5951827e-05  -8.1052561e-05   1.2510887e-04   3.6461036e-04  -1.3449999e-04   1.7890359e-04  -8.1498182e-05  -8.7685017e-05  -9.9083389e-05   1.1267091e-04  -7.6866612e-05   1.1581292e-04  -2.5445065e-04  -6.5808849e-05   6.7215352e-05   1.0416113e-04   2.4025690e-04  -1.9655730e-04  -3.3378708e-04   4.3875578e-04  -7.4736473e-07   1.2840779e-06   1.5344412e-04   5.4672399e-04  -4.6621502e-04  -3.0669661e-04  -3.8584263e-04  -3.9150881e-04  -4.9110059e-04  -3.2477522e-04  -3.9231675e-05   6.2508306e-05  -3.9594700e-05  -1.8915827e-04  -2.0720270e-04  -3.7162137e-04  -6.4806331e-04  -3.7725155e-04   1.8565500e-04  -1.9237005e-04  -3.7713864e-04  -3.3507298e-04  -5.9755801e-04  -5.7582340e-04  -2.7368256e-04  -1.9737331e-04  -2.7350224e-04  -3.2707548e-04  -3.7058357e-04   1.4153105e-05   4.9094042e-04  -9.5137354e-05  -9.3065647e-04  -1.3336765e-03  -5.8349397e-04  -2.7513728e-04  -3.0144898e-04  -2.7759134e-04  -3.3831787e-04  -1.2935612e-03  -8.1795810e-04   1.1942162e-04  -5.8703457e-05  -1.0235800e-04   2.4434270e-05  -2.0460375e-05   3.2739271e-05  -5.3173190e-05   5.8206978e-05  -6.6790957e-05  -4.2760699e-05  -5.9423753e-05  -4.4494943e-05  -1.2248187e-04  -6.2567515e-05  -4.8053603e-05  -1.1583830e-04  -3.9078266e-05  -1.7459110e-05  -8.6804465e-05  -3.7488403e-05  -1.4522551e-04  -9.6616378e-06  -4.0261081e-05  -2.4150722e-05  -4.6957521e-05  -9.0799046e-05  -1.0811738e-04  -1.2314568e-04  -6.7165516e-05  -8.9372458e-05  -1.4871973e-04  -6.5739518e-05  -1.3937320e-05   2.7851910e-05  -8.6885733e-05  -1.0767065e-05  -6.2267138e-06  -1.1631796e-04  -8.2175278e-05   7.7527639e-05   1.1380576e-04  -2.4146861e-06  -4.2874427e-05   5.8504970e-05   8.4118039e-05   1.4029130e-04   4.7026337e-04  -6.4382263e-05   8.2989871e-05   1.9772780e-04   1.5650807e-04  -1.3811367e-04   2.2737476e-06   1.7472244e-04   4.7464677e-05   1.4850137e-04   1.4204193e-04   1.1400265e-04   1.8502064e-04   1.1374781e-04   5.8661352e-05   1.0274641e-04   1.4922106e-05   5.9490109e-05   1.6235101e-04   5.6602865e-05   1.1967035e-04   3.3981970e-04   7.5569540e-04   3.7839991e-04   8.3265505e-05  -9.4466924e-06  -1.3159384e-05   2.4375319e-04   5.3078437e-04   3.8046479e-04  -8.0393168e-06  -2.1824878e-04  -1.5300652e-04  -1.0346272e-04  -8.4359100e-05  -1.1270770e-04  -6.7202175e-05   1.4274299e-05   7.7646164e-05  -1.8120570e-05  -4.1009546e-05  -2.3043418e-06  -6.3707333e-05  -1.8288721e-04   1.5665844e-05   8.8826775e-05  -7.6545972e-05   2.2736257e-05  -2.4208136e-05  -8.6491353e-05  -1.4031458e-04  -5.6754303e-05  -6.0846181e-05  -5.9749737e-05  -1.0893945e-04  -8.0301385e-05   8.4887098e-06   2.2310570e-05  -4.8345153e-05  -1.4710554e-04  -1.9315019e-04  -1.0779560e-04  -3.4420505e-05  -1.5934874e-04  -3.9975029e-05  -8.8880930e-05  -2.0176501e-04  -1.5360754e-04  -8.2029104e-05   1.9412607e-04   1.7290754e-04   8.2332393e-05   8.8477558e-05   1.2374725e-04  -6.4693908e-06   2.0511190e-04   1.9445444e-04   1.9110953e-04   1.4760998e-04   2.7866434e-04   1.7362978e-04   1.3136508e-04   2.4441550e-04   1.6623675e-04  -9.1820994e-05   2.9833070e-04   2.4946688e-05  -3.9156672e-05  -5.7622616e-05   2.2632073e-04   6.2456450e-05   4.8913592e-05   2.1820535e-04   8.1757040e-05   4.1879251e-04   7.3861258e-04  -8.9362584e-05  -4.1292826e-04  -1.0735225e-03  -1.7547740e-04   1.1792688e-04   1.3426047e-03   1.0138417e-04  -2.2100892e-04  -5.5678434e-04  -5.3284764e-04  -2.6838847e-04   2.3891798e-04   7.1075219e-05   6.0684882e-05   1.5781009e-04   7.4722804e-05   6.3976581e-05  -5.3097237e-05  -4.6837372e-05   1.6551923e-05  -3.6480206e-05  -1.9272983e-05   7.0352450e-05  -1.0180746e-04  -8.5200701e-05  -8.9674268e-05  -9.5940780e-05  -1.9427350e-05   1.1024493e-04   1.0100105e-04   7.1842177e-05   7.2577209e-06   2.6510801e-05   2.9517094e-05  -1.7245133e-05   3.0137236e-05  -2.9965674e-05  -1.1609900e-04   6.5947096e-05   6.1184491e-05  -4.1307860e-05  -1.0203553e-04   6.5995866e-05   4.6362700e-05   4.2224987e-05   2.9784999e-05   3.6395878e-05  -9.7316303e-06  -1.7775011e-05   1.0914303e-04  -1.5632678e-04   2.3182018e-04   8.5002073e-05   1.6816536e-04  -3.5610778e-05  -1.8272828e-04  -8.6416381e-04  -1.2243506e-05   1.8259017e-04   1.4261901e-04  -4.5524280e-05   3.8104987e-04  -1.7570100e-04  -4.9789697e-04   1.0334072e-04   1.6298942e-04   8.2780360e-05   5.4547676e-05  -3.0444586e-04   7.9437452e-05  -2.5304443e-04  -2.5168716e-05   1.9551444e-05   3.1443432e-04   2.3733835e-04  -7.6640095e-05   1.9576866e-04  -5.1321047e-04  -1.1229853e-03  -2.0789957e-04   1.1825236e-04   9.3372057e-04   6.7889525e-05  -1.0151851e-04  -7.1172294e-04  -4.4642643e-04   3.9241101e-04   9.3066474e-05   3.6797817e-04   1.1107847e-04   2.0244260e-04   1.6895551e-04   5.5378994e-05  -2.2293485e-05  -1.1333045e-04   4.0034820e-05   1.8040259e-06  -1.3178380e-04   5.4814616e-05   4.2051806e-05  -1.0942383e-04  -2.0846253e-05  -6.3580817e-05  -2.3822767e-04  -3.8125731e-05  -2.9270942e-05  -6.8301850e-06   2.6376895e-05   1.6155943e-04   2.1854057e-05   1.5394998e-04  -3.0191984e-05   9.1647043e-06  -9.7389814e-05   3.9702706e-05   1.1243963e-04   3.9056443e-05   4.9680207e-05  -7.6040672e-05   2.4145702e-04   1.1225951e-04   9.1946175e-06   1.3549629e-04  -1.6143755e-04  -1.5161679e-04  -3.4540049e-04   6.4610021e-05  -6.0092121e-04  -7.1319170e-05  -3.6841020e-04  -4.4908028e-05  -2.6378125e-04  -1.7510715e-04  -2.6443951e-04  -1.5990239e-04  -6.8409911e-04   1.5489072e-04  -6.4243772e-04  -7.7413261e-05  -4.7687676e-05  -5.6379961e-04  -3.8689029e-04   1.2189861e-04  -2.2183574e-04   6.3684528e-05  -8.7154195e-05   3.4932184e-04  -1.3286246e-04   4.7108629e-05  -1.1433897e-04  -2.3543983e-04  -2.6406170e-04  -5.0927139e-05  -3.4107339e-04   1.6147667e-04  -2.6873293e-04   3.2298099e-05  -1.4361849e-04   2.9488359e-04  -1.9072980e-04  -1.0803120e-04   1.7874351e-04  -4.4086425e-05
   2.2497356e-05  -7.9066999e-06   9.6465395e-05  -3.9045643e-05   2.5459094e-05  -1.5517518e-05   4.4497490e-05   7.3826421e-06  -3.7732869e-05  -3.8252341e-05   8.9714487e-06  -5.9219163e-05   1.6230648e-04   2.6837885e-05  -4.0052123e-05  -1.2928469e-05  -9.9466260e-06  -4.3794521e-05   7.2405066e-07  -7.4701837e-05  -7.9262310e-06  -5.8401268e-05  -1.5422384e-05  -6.2792529e-05  -1.0291170e-04  -3.8004100e-05  -6.9335299e-06  -9.4153967e-05  -7.9496933e-05  -6.9029424e-05   3.0671053e-06  -2.6590574e-05   3.0634343e-05  -1.3764873e-05  -4.1631855e-05  -4.0599871e-06  -2.2413328e-05   6.8466252e-07   2.7050741e-04   3.0812552e-05  -3.5669078e-04   2.3343239e-04  -4.8148226e-04   5.6445510e-05  -9.7144319e-05  -1.8712169e-04  -7.0588166e-05   6.8308782e-05   2.7679640e-04   2.8082654e-04   2.1056762e-04   9.8564195e-05  -5.5570850e-05  -6.3398427e-05   1.2909039e-04   3.8346558e-04  -1.3022326e-04   1.9050371e-04  -8.9369581e-05  -3.9064939e-05  -7.1057198e-05   1.2888042e-04  -5.2611100e-05   1.2196243e-04  -2.3244996e-04  -4.7458796e-05   7.8331020e-05   1.0374497e-04   2.4139749e-04  -1.9822796e-04  -3.6783320e-04   4.6567304e-04  -3.3707176e-06  -1.1926520e-05   1.8345304e-04   6.4783501e-04  -4.7533140e-04  -3.0996497e-04  -4.0620537e-04  -4.0148735e-04  -5.0819727e-04  -3.3260883e-04  -6.0432860e-05  -2.8733200e-05  -3.2428587e-05  -1.7457466e-04  -1.9066082e-04  -3.8196999e-04  -6.6650047e-04  -4.1718341e-04   9.0184025e-05  -2.0425860e-04  -3.5469809e-04  -3.4055844e-04  -6.1601287e-04  -6.2497529e-04  -2.5279570e-04  -1.8501825e-04  -2.6977377e-04  -3.2591837e-04  -3.8323775e-04   3.5151446e-05   5.4176420e-04  -8.8311913e-05  -9.7401600e-04  -1.3487276e-03  -5.8597490e-04  -2.4960014e-04  -2.5611398e-04  -3.0633660e-04  -3.4332947e-04  -1.3153120e-03  -8.3036262e-04   5.6161123e-05  -5.5027927e-05  -1.0354807e-04   1.2424601e-05  -9.7126606e-06   2.3679194e-05  -5.1836187e-05   4.8176783e-05  -6.9465368e-05  -4.3575320e-05  -5.9527768e-05  -5.1081870e-05  -1.1549634e-04  -7.4662439e-05  -4.9737871e-05  -1.1509684e-04  -4.4966256e-05  -1.9312907e-05  -8.6669661e-05  -4.3983937e-05  -1.3770175e-04  -1.3958188e-05  -3.2573707e-05  -2.3327018e-05  -4.7525122e-05  -8.9146653e-05  -1.1278277e-04  -1.3838701e-04  -5.9765161e-05  -7.5855893e-05  -1.2686891e-04  -6.1664550e-05  -2.2536794e-05  -1.1625379e-05  -7.6713356e-05  -4.5917185e-06   3.1049184e-07  -1.0535520e-04  -7.4995678e-05   9.0215850e-05   1.2089057e-04  -1.9657786e-05  -2.9804702e-05   4.5903741e-05   8.4648661e-05   1.3202278e-04   4.5054197e-04  -7.0201318e-05   8.3193507e-05   1.9390514e-04   1.6997147e-04  -1.4781091e-04  -1.5669041e-05   1.7791982e-04   3.4188459e-05   1.5242378e-04   1.5653115e-04   1.1361907e-04   2.1010635e-04   1.2391978e-04   6.8978734e-05   1.0348590e-04   2.8317972e-05   6.6275522e-05   1.7077667e-04   4.9423341e-05   1.2292151e-04   3.4565860e-04   7.3700218e-04   3.5594842e-04   7.5871538e-05  -3.6351803e-05   2.2403584e-05   2.4189088e-04   5.3492948e-04   3.6554982e-04  -4.6517483e-06  -2.1509523e-04  -1.4947111e-04  -1.0706602e-04  -8.3347120e-05  -1.1055422e-04  -6.3992463e-05   7.9976075e-06   7.7973173e-05  -9.4612541e-06  -3.5865237e-05   2.0006559e-06  -5.8111241e-05  -2.0027702e-04   1.4851627e-05   9.3172708e-05  -6.8075192e-05   3.0228847e-05  -1.5769840e-05  -8.2560375e-05  -1.3026472e-04  -5.3242534e-05  -5.2032032e-05  -5.5263601e-05  -1.0288310e-04  -7.0236465e-05   1.5943665e-05   3.6688476e-05  -4.0142724e-05  -1.4366613e-04  -1.8066655e-04  -9.9933314e-05  -2.7098527e-05  -1.5232938e-04  -3.9131633e-05  -8.3101575e-05  -1.9679553e-04  -1.4626022e-04  -8.1274948e-05   2.0002541e-04   1.7351701e-04   8.9078970e-05   9.3203830e-05   1.2667453e-04  -1.5106538e-06   2.1630289e-04   1.8479384e-04   1.6954337e-04   1.4167385e-04   3.0001627e-04   1.7796230e-04   1.7026152e-04   2.6081111e-04   1.5553728e-04  -1.0825514e-04   3.0993896e-04   4.2287478e-05  -3.2683543e-05  -4.7650738e-05   2.3728912e-04   6.1439810e-05   5.4102769e-05   2.2506134e-04   6.2536463e-05   4.3116414e-04   7.0307395e-04  -1.0968764e-04  -3.7796848e-04  -1.0083888e-03  -1.4484358e-04   1.2190160e-04   1.3310022e-03   1.2554605e-04  -2.1191626e-04  -5.0031776e-04  -5.1143097e-04  -2.3586855e-04   2.2940521e-04   6.2604476e-05   5.0453711e-05   1.5763555e-04   6.6252062e-05   5.7965742e-05  -6.1754122e-05  -4.3658215e-05   3.9026134e-06  -4.7716258e-05  -4.0926970e-05   5.9030506e-05  -1.2543289e-04  -9.3521841e-05  -9.6318428e-05  -1.2009020e-04  -3.0227691e-05   1.0305700e-04   8.9019510e-05   5.8823280e-05  -5.6896152e-06   2.0768676e-05   1.7829934e-05  -2.7911457e-05   2.3742837e-05  -4.5121550e-05  -1.4161026e-04   6.1717325e-05   5.9462913e-05  -4.2927742e-05  -1.1935232e-04   5.5041486e-05   2.7114119e-05   4.5823522e-05   2.2376866e-05   3.0457342e-05  -2.1831689e-05  -4.0461060e-05   1.4023017e-04  -1.3493593e-04   2.3853822e-04   1.2992336e-04   1.6752531e-04  -1.3826706e-05  -1.6779220e-04  -8.4670093e-04   8.9240651e-07   2.0432498e-04   1.9511121e-04  -6.1778216e-06   3.8094458e-04  -1.0653127e-04  -4.7000112e-04   9.9447040e-05   2.1223688e-04   1.3599807e-04   7.8106863e-05  -2.6844593e-04   1.0386546e-04  -2.2647554e-04  -2.9387593e-06   7.4027965e-05   3.7808056e-04   2.9025226e-04  -4.1684823e-05   2.7192129e-04  -5.5938253e-04  -1.1536894e-03  -1.6091900e-04   1.3879888e-04   1.0228095e-03   1.5228150e-04  -9.8615574e-05  -7.5216725e-04  -4.4651560e-04   5.1182358e-04   9.6884183e-05   3.9941322e-04   8.5190840e-05   2.2296178e-04   1.4900585e-04   5.5658527e-05  -3.4479130e-05  -1.2326775e-04   1.8348149e-05  -1.6604274e-05  -1.4495233e-04   6.7537138e-05   1.4762914e-05  -1.2108055e-04  -9.7435288e-06  -8.5509643e-05  -2.6129217e-04  -3.3970399e-05  -4.9194472e-05  -5.6983410e-06   1.6540528e-05   1.8438833e-04   1.6223658e-05   1.6558030e-04  -3.1729682e-05   1.1049925e-05  -1.0500227e-04   4.9890400e-05   1.1440293e-04   6.0348944e-05   5.2996293e-05  -9.4427296e-05   2.0652492e-04   1.4619226e-04   1.6330375e-06   1.2148350e-04  -1.6194162e-04  -1.4339666e-04  -3.8584117e-04   3.9983543e-05  -5.8629768e-04  -1.1195359e-04  -3.6730824e-04  -3.6726925e-05  -3.0100853e-04  -1.9818426e-04  -2.8180946e-04  -1.5875017e-04  -7.1157451e-04   1.5594607e-04  -6.3823620e-04  -9.7241228e-05  -6.2401696e-05  -5.6619050e-04  -4.2891572e-04   1.0394889e-04  -2.0899863e-04   7.3656504e-05  -1.0564195e-04   3.4096335e-04  -1.2630483e-04   3.1526383e-05  -9.6779295e-05  -2.4142690e-04  -2.6973124e-04  -3.2784780e-05  -3.2251604e-04   1.5756829e-04  -2.8550119e-04   4.1922103e-05  -1.7142979e-04   2.6893300e-04  -1.8556261e-04  -1.1070339e-04   2.1289830e-04  -3.3116014e-05
   1.8680866e-05  -1.0617330e-05   9.2926620e-05  -3.9236997e-05   2.3084101e-05  -1.9549604e-05   4.6987890e-05   9.0717532e-06  -4.0094620e-05  -4.3016451e-05   1.4798756e-06  -6.4978159e-05   1.5520306e-04   2.8917398e-05  -3.7652539e-05  -1.9446957e-05  -1.6290171e-05  -4.8636530e-05  -4.1009668e-06  -7.9816398e-05  -1.2172222e-05  -5.9500033e-05  -1.7809255e-05  -6.9039733e-05  -1.0637117e-04  -4.3764959e-05  -1.1001390e-05  -9.9632442e-05  -8.4677250e-05  -6.8613334e-05   2.4230095e-06  -2.9607729e-05   2.3520213e-05  -2.1071202e-05  -4.4774840e-05  -1.0599751e-05  -2.6833091e-05  -7.4014860e-08   2.7785102e-04   4.5149195e-05  -3.3523928e-04   2.7129808e-04  -4.5919510e-04   7.2621697e-05  -5.9805467e-05  -1.4832888e-04  -6.4462561e-05   8.2076568e-05   2.7997159e-04   2.9911569e-04   2.4215304e-04   1.1068365e-04  -4.1236526e-05  -4.3539064e-05   1.3350118e-04   3.9826082e-04  -1.2407903e-04   1.9996906e-04  -9.6911510e-05   9.0502667e-06  -4.2438278e-05   1.4207808e-04  -2.7821147e-05   1.2755097e-04  -2.0665970e-04  -2.7286681e-05   9.4060716e-05   1.0915826e-04   2.4922863e-04  -1.9828454e-04  -3.9895090e-04   4.8751052e-04  -1.9647989e-06  -2.0279110e-05   2.1888652e-04   7.5017801e-04  -4.8581038e-04  -3.1435077e-04  -4.2319829e-04  -4.1620954e-04  -5.2354305e-04  -3.4065223e-04  -9.4044684e-05  -1.5074992e-04  -2.9638767e-05  -1.5723809e-04  -1.7223656e-04  -3.9369531e-04  -6.7514152e-04  -4.6419389e-04  -4.2576566e-05  -2.1671822e-04  -3.2834690e-04  -3.4847313e-04  -6.3161281e-04  -6.7432205e-04  -2.3034318e-04  -1.7395788e-04  -2.6471235e-04  -3.2673136e-04  -4.0001886e-04   5.5704091e-05   5.8375579e-04  -8.9952637e-05  -9.9591139e-04  -1.2780865e-03  -5.3823879e-04  -2.2286325e-04  -1.9582883e-04  -3.3804957e-04  -3.3956660e-04  -1.2806407e-03  -8.0614695e-04  -3.5652964e-05  -5.0581831e-05  -1.0316323e-04   1.0201842e-06   1.1534063e-06   1.5317001e-05  -4.9420621e-05   3.8510280e-05  -6.8605733e-05  -4.3432762e-05  -5.8631216e-05  -5.5796128e-05  -1.0684278e-04  -8.5048856e-05  -4.9866089e-05  -1.1208743e-04  -4.9458840e-05  -2.0092226e-05  -8.4829906e-05  -4.8863451e-05  -1.2855072e-04  -1.7567615e-05  -2.3625846e-05  -2.1748233e-05  -4.7758305e-05  -8.5861731e-05  -1.1600732e-04  -1.5028970e-04  -5.1263119e-05  -6.1070146e-05  -1.0146414e-04  -5.6972460e-05  -2.9599461e-05  -4.9001948e-05  -6.7061929e-05   1.7626367e-06   7.2415524e-06  -9.2415578e-05  -6.8021772e-05   1.0201800e-04   1.2853475e-04  -3.6536994e-05  -1.6112885e-05   3.4391795e-05   8.4725206e-05   1.1977731e-04   4.2033457e-04  -7.6154003e-05   8.2036403e-05   1.8913688e-04   1.8144348e-04  -1.5655974e-04  -3.6465460e-05   1.7823564e-04   2.0987150e-05   1.5559512e-04   1.7059555e-04   1.1227217e-04   2.3307862e-04   1.3405177e-04   7.9598246e-05   1.0353014e-04   4.2118039e-05   7.3991526e-05   1.7796020e-04   4.5354739e-05   1.2568165e-04   3.4701935e-04   7.0526205e-04   3.2546449e-04   6.9881924e-05  -6.2390693e-05   5.7452901e-05   2.3762917e-04   5.3050637e-04   3.4581673e-04  -5.5682707e-07  -2.0981382e-04  -1.4415826e-04  -1.0832384e-04  -8.1962784e-05  -1.0662449e-04  -5.9416959e-05   2.0222742e-06   7.6702886e-05  -4.6970460e-07  -2.9362084e-05   7.9138338e-06  -5.1282131e-05  -2.1462228e-04   1.3788644e-05   9.4795045e-05  -5.7846547e-05   3.8958767e-05  -5.9954574e-06  -7.6351658e-05  -1.1806389e-04  -4.8492193e-05  -4.2097152e-05  -4.9414775e-05  -9.5442695e-05  -5.9007257e-05   2.4065601e-05   5.1975787e-05  -3.1011944e-05  -1.3697927e-04  -1.6343104e-04  -9.0514503e-05  -1.8684917e-05  -1.4306572e-04  -3.7753718e-05  -7.5200611e-05  -1.8720037e-04  -1.3463066e-04  -8.0088303e-05   1.9965530e-04   1.6914244e-04   9.2412696e-05   9.1568661e-05   1.2658322e-04   1.4542034e-06   2.2194596e-04   1.7234035e-04   1.4341764e-04   1.2998251e-04   3.1614535e-04   1.7646882e-04   2.0448813e-04   2.7732201e-04   1.4425532e-04  -1.2581942e-04   3.1683957e-04   5.6625276e-05  -2.7658869e-05  -3.8595721e-05   2.4532233e-04   5.5783640e-05   5.6683124e-05   2.2402814e-04   3.6617421e-05   4.3582449e-04   6.6278741e-04  -1.3491059e-04  -3.4398507e-04  -9.3113574e-04  -1.1651371e-04   1.2281786e-04   1.3106572e-03   1.4497263e-04  -2.0299563e-04  -4.3691912e-04  -4.8804988e-04  -2.0651779e-04   2.1650052e-04   5.3164645e-05   4.0262312e-05   1.5511554e-04   5.6720328e-05   5.1441632e-05  -7.0852033e-05  -3.9645080e-05  -8.5243479e-06  -5.8464838e-05  -6.2922141e-05   4.7492868e-05  -1.4720278e-04  -1.0150743e-04  -1.0322996e-04  -1.4333971e-04  -4.1052352e-05   9.4371255e-05   7.6545752e-05   4.6188970e-05  -1.8800287e-05   1.5333301e-05   6.3421899e-06  -3.8296545e-05   1.8407607e-05  -6.0357432e-05  -1.6637706e-04   5.7710827e-05   5.8649145e-05  -4.1675511e-05  -1.3617047e-04   4.3877611e-05   5.6909014e-06   4.7978275e-05   1.4884790e-05   2.4823253e-05  -3.4414535e-05  -6.4896537e-05   1.8046633e-04  -1.0792700e-04   2.4810616e-04   1.7336023e-04   1.7268523e-04   9.8342425e-06  -1.3336429e-04  -7.7298011e-04   2.1501164e-05   2.2782158e-04   2.4444795e-04   3.6824398e-05   3.6590511e-04  -1.4338133e-05  -3.9560352e-04   1.0292813e-04   2.6308360e-04   1.8849119e-04   1.0622918e-04  -2.2389076e-04   1.2954881e-04  -1.9660724e-04   2.0316074e-05   1.2340637e-04   4.3809568e-04   3.4380588e-04   1.0545813e-05   3.4311737e-04  -5.9319140e-04  -1.1425394e-03  -8.7578044e-05   1.6484286e-04   1.1296815e-03   2.2244792e-04  -9.1881530e-05  -7.6653360e-04  -4.3961800e-04   6.1487474e-04   1.0292172e-04   4.2943221e-04   5.8776902e-05   2.4108760e-04   1.2683503e-04   5.6472558e-05  -4.6053931e-05  -1.3015723e-04  -2.2745896e-06  -3.3747378e-05  -1.5475433e-04   8.2225369e-05  -8.8655529e-06  -1.2933322e-04   7.1867925e-08  -1.0447926e-04  -2.8084228e-04  -2.6825489e-05  -6.5459688e-05  -1.8338871e-06   8.6315296e-06   2.0772702e-04   1.2160780e-05   1.7854216e-04  -3.0932934e-05   1.3878663e-05  -1.0926386e-04   6.0997763e-05   1.1511875e-04   8.0551874e-05   5.4628039e-05  -1.0869898e-04   1.7297020e-04   1.7758836e-04  -5.7216349e-06   1.0499108e-04  -1.6329977e-04  -1.3708109e-04  -4.2457094e-04   1.4953336e-05  -5.6453777e-04  -1.5056216e-04  -3.6286583e-04  -2.7590314e-05  -3.4156569e-04  -2.3023187e-04  -2.9707022e-04  -1.5640205e-04  -7.3922867e-04   1.5589079e-04  -6.2812376e-04  -1.1967017e-04  -8.2248327e-05  -5.6407275e-04  -4.7173122e-04   8.0141486e-05  -1.9647580e-04   8.1409281e-05  -1.2340553e-04   3.2953514e-04  -1.1890630e-04   1.5721416e-05  -7.9514226e-05  -2.4572403e-04  -2.7553465e-04  -1.5594652e-05  -3.0261596e-04   1.5305044e-04  -3.0096420e-04   4.9165915e-05  -2.0370507e-04   2.4196563e-04  -1.7970207e-04  -1.1159320e-04   2.4365636e-04  -2.3058167e-05
   1.4563759e-05  -1.3848653e-05   8.8061137e-05  -3.9313135e-05   2.0190583e-05  -2.3481473e-05   4.9637976e-05   1.1850487e-05  -4.1787744e-05  -4.6903149e-05  -5.9454403e-06  -7.0004794e-05   1.4618074e-04   3.1055940e-05  -3.3997531e-05  -2.5211595e-05  -2.2656823e-05  -5.2866413e-05  -8.9202301e-06  -8.3970927e-05  -1.6404414e-05  -6.0436347e-05  -2.0189222e-05  -7.4867152e-05  -1.0903668e-04  -4.9085739e-05  -1.6039554e-05  -1.0455033e-04  -8.9293577e-05  -6.7256933e-05   1.3450674e-06  -3.2501531e-05   1.6672736e-05  -2.8567673e-05  -4.7415919e-05  -1.6767747e-05  -3.0785023e-05  -1.9438942e-06   2.8549070e-04   5.8366668e-05  -3.0742374e-04   3.0501691e-04  -4.3233987e-04   8.8054364e-05  -1.8779529e-05  -1.0111797e-04  -5.5859405e-05   9.5822658e-05   2.8235447e-04   3.1441033e-04   2.7279827e-04   1.2832908e-04  -2.2198204e-05  -2.2625500e-05   1.3865779e-04   4.0844207e-04  -1.1710180e-04   2.0651586e-04  -1.0398670e-04   5.4440764e-05  -1.4810761e-05   1.5156593e-04  -3.3014538e-06   1.3260023e-04  -1.7917392e-04  -6.7455630e-06   1.1470588e-04   1.2218373e-04   2.6652924e-04  -1.9764778e-04  -4.2486081e-04   5.0433564e-04   4.2866273e-06  -2.1890602e-05   2.5919716e-04   8.4843245e-04  -4.9798290e-04  -3.2044373e-04  -4.3606613e-04  -4.3633392e-04  -5.3714751e-04  -3.4881807e-04  -1.3918029e-04  -3.0032221e-04  -3.0996279e-05  -1.3750259e-04  -1.5240786e-04  -4.0660531e-04  -6.7342969e-04  -5.1786566e-04  -2.0932778e-04  -2.2884853e-04  -2.9943065e-04  -3.5921903e-04  -6.4440261e-04  -7.2247545e-04  -2.0744163e-04  -1.6513469e-04  -2.5881296e-04  -3.3077266e-04  -4.2170831e-04   7.5170159e-05   6.1495434e-04  -1.0148831e-04  -9.9403443e-04  -1.1126874e-03  -4.3434318e-04  -1.9671433e-04  -1.2164319e-04  -3.7298451e-04  -3.2629694e-04  -1.1853520e-03  -7.4248442e-04  -1.5571016e-04  -4.5975414e-05  -1.0164524e-04  -9.0820525e-06   1.1625169e-05   8.1255443e-06  -4.6109668e-05   2.9711836e-05  -6.4328099e-05  -4.2513801e-05  -5.6862403e-05  -5.8437036e-05  -9.7139031e-05  -9.3347862e-05  -4.8685976e-05  -1.0720575e-04  -5.2441339e-05  -1.9692323e-05  -8.1595627e-05  -5.2043766e-05  -1.1864397e-04  -2.0395480e-05  -1.3917053e-05  -1.9556827e-05  -4.7837440e-05  -8.1358449e-05  -1.1781264e-04  -1.5863625e-04  -4.2138355e-05  -4.5795938e-05  -7.3768963e-05  -5.2096185e-05  -3.4920537e-05  -8.2644558e-05  -5.8456678e-05   8.0106207e-06   1.4390486e-05  -7.8208366e-05  -6.1932903e-05   1.1280560e-04   1.3680880e-04  -5.2138892e-05  -2.4444953e-06   2.4793491e-05   8.4571571e-05   1.0378965e-04   3.8175209e-04  -8.2009028e-05   7.9632725e-05   1.8380213e-04   1.9048308e-04  -1.6418390e-04  -5.9440543e-05   1.7593778e-04   8.7651949e-06   1.5792471e-04   1.8402729e-04   1.1056853e-04   2.5359755e-04   1.4416173e-04   9.0234361e-05   1.0309493e-04   5.6095078e-05   8.2740483e-05   1.8368281e-04   4.5137251e-05   1.2826377e-04   3.4405958e-04   6.6227961e-04   2.8827838e-04   6.6266002e-05  -8.5641523e-05   9.0526785e-05   2.3145717e-04   5.1767363e-04   3.2231744e-04   4.2261765e-06  -2.0262989e-04  -1.3734542e-04  -1.0718705e-04  -8.0488220e-05  -1.0108868e-04  -5.3656640e-05  -3.4463839e-06   7.3772188e-05   8.7037248e-06  -2.1653313e-05   1.5364965e-05  -4.3441424e-05  -2.2546823e-04   1.2579143e-05   9.3651463e-05  -4.6154673e-05   4.8756111e-05   4.8104708e-06  -6.7963592e-05  -1.0407430e-04  -4.2640563e-05  -3.1531399e-05  -4.2423278e-05  -8.6912549e-05  -4.6994778e-05   3.2690538e-05   6.7910074e-05  -2.1181294e-05  -1.2734862e-04  -1.4216948e-04  -8.0130317e-05  -9.3162090e-06  -1.3186525e-04  -3.6050978e-05  -6.5501501e-05  -1.7355196e-04  -1.1929801e-04  -7.8503272e-05   1.9308131e-04   1.6019892e-04   9.1900374e-05   8.3512051e-05   1.2345518e-04   1.9721225e-06   2.2209129e-04   1.5786613e-04   1.1367687e-04   1.1240949e-04   3.2596084e-04   1.6874102e-04   2.3304021e-04   2.9426658e-04   1.3335402e-04  -1.4415611e-04   3.1893106e-04   6.7397724e-05  -2.4500958e-05  -3.1201886e-05   2.5032719e-04   4.5809892e-05   5.6294697e-05   2.1539096e-04   4.9687660e-06   4.3240192e-04   6.2089731e-04  -1.6464729e-04  -3.1368912e-04  -8.4581393e-04  -9.1674505e-05   1.2095157e-04   1.2853067e-03   1.5868257e-04  -1.9572057e-04  -3.7041568e-04  -4.6463664e-04  -1.8145228e-04   2.0119426e-04   4.3436738e-05   3.0729687e-05   1.5086282e-04   4.6701706e-05   4.4929128e-05  -7.9776382e-05  -3.4834298e-05  -2.0113384e-05  -6.8004844e-05  -8.4235119e-05   3.6526889e-05  -1.6620020e-04  -1.0871511e-04  -1.1031695e-04  -1.6479300e-04  -5.1287135e-05   8.4740928e-05   6.4328128e-05   3.4725104e-05  -3.1480815e-05   1.0721374e-05  -4.2382376e-06  -4.7673492e-05   1.4662804e-05  -7.4832832e-05  -1.8964617e-04   5.4394541e-05   5.9199430e-05  -3.7405749e-05  -1.5172332e-04   3.2930153e-05  -1.7301123e-05   4.8823371e-05   7.7716722e-06   1.9852144e-05  -4.7004383e-05  -9.0209620e-05   2.2911257e-04  -7.6233274e-05   2.5968637e-04   2.1418407e-04   1.8315102e-04   3.3979333e-05  -7.7846984e-05  -6.4026373e-04   4.7033401e-05   2.5133410e-04   2.8820626e-04   8.1105905e-05   3.3452857e-04   9.7645490e-05  -2.7441261e-04   1.1173503e-04   3.1325310e-04   2.3742209e-04   1.3672367e-04  -1.7396477e-04   1.5533119e-04  -1.6499223e-04   4.3039341e-05   1.6436616e-04   4.9116297e-04   3.9632124e-04   7.7495915e-05   4.0531399e-04  -6.1249842e-04  -1.0879287e-03   1.2363113e-05   1.9432381e-04   1.2512308e-03   2.7595205e-04  -8.1700021e-05  -7.5221731e-04  -4.2581300e-04   6.9636588e-04   1.1104848e-04   4.5729278e-04   3.2651591e-05   2.5612895e-04   1.0347551e-04   5.7680352e-05  -5.6904355e-05  -1.3477395e-04  -2.1208103e-05  -4.9060500e-05  -1.6075155e-04   9.8149339e-05  -2.7844115e-05  -1.3409956e-04   6.8810760e-06  -1.1997290e-04  -2.9603967e-04  -1.7045102e-05  -7.7260674e-05   4.1108177e-06   3.1268371e-06   2.3062838e-04   9.8536746e-06   1.9254993e-04  -2.8120608e-05   1.7637668e-05  -1.0978365e-04   7.2557719e-05   1.1446950e-04   9.8438557e-05   5.4253179e-05  -1.1805545e-04   1.4261733e-04   2.0448454e-04  -1.2701085e-05   8.6562317e-05  -1.6607054e-04  -1.3307899e-04  -4.6133430e-04  -9.6515337e-06  -5.3793600e-04  -1.8551656e-04  -3.5644746e-04  -1.8033170e-05  -3.8568858e-04  -2.7220382e-04  -3.1034263e-04  -1.5319602e-04  -7.6757365e-04   1.5514463e-04  -6.1347816e-04  -1.4446544e-04  -1.0849639e-04  -5.5884063e-04  -5.1466252e-04   5.0891853e-05  -1.8584156e-04   8.6481094e-05  -1.4044852e-04   3.1596860e-04  -1.1136554e-04  -7.7934790e-08  -6.3830854e-05  -2.4837240e-04  -2.8229003e-04  -3.0937440e-07  -2.8258155e-04   1.4904942e-04  -3.1477601e-04   5.2769275e-05  -2.4092411e-04   2.1609423e-04  -1.7391319e-04  -1.1032761e-04   2.6988792e-04  -1.4885546e-05
   1.0177391e-05  -1.7629475e-05   8.2067614e-05  -3.9324898e-05   1.6793244e-05  -2.7248554e-05   5.2453549e-05   1.5749967e-05  -4.2873351e-05  -4.9888356e-05  -1.3210991e-05  -7.4250841e-05   1.3554418e-04   3.3190566e-05  -2.9167108e-05  -3.0208049e-05  -2.8938966e-05  -5.6522126e-05  -1.3788233e-05  -8.7246424e-05  -2.0618894e-05  -6.1271827e-05  -2.2603193e-05  -8.0257807e-05  -1.1105763e-04  -5.3944629e-05  -2.2139196e-05  -1.0896212e-04  -9.3340971e-05  -6.5145432e-05  -1.7340666e-07  -3.5450751e-05   9.7915908e-06  -3.5870582e-05  -4.9585901e-05  -2.2374212e-05  -3.4171710e-05  -4.9368702e-06   2.9372393e-04   7.0329808e-05  -2.7415858e-04   3.3407029e-04  -4.0225180e-04   1.0215547e-04   2.4896360e-05  -4.6061130e-05  -4.4981441e-05   1.0930197e-04   2.8463576e-04   3.2638656e-04   3.0134352e-04   1.5261009e-04   2.1992317e-06  -1.8863421e-06   1.4483357e-04   4.1356382e-04  -1.1044706e-04   2.0939689e-04  -1.1046056e-04   9.5134945e-05   1.0284213e-05   1.5684895e-04   2.0273651e-05   1.3715661e-04  -1.5225877e-04   1.2590128e-05   1.4028842e-04   1.4445531e-04   2.9580008e-04  -1.9726862e-04  -4.4341123e-04   5.1645251e-04   1.5945657e-05  -1.5109067e-05   3.0358553e-04   9.3675171e-04  -5.1187968e-04  -3.2858201e-04  -4.4413237e-04  -4.6202358e-04  -5.4894181e-04  -3.5683640e-04  -1.9415788e-04  -4.7227507e-04  -3.5952457e-05  -1.1574892e-04  -1.3153991e-04  -4.2022279e-04  -6.6129031e-04  -5.7722281e-04  -4.0427958e-04  -2.3957680e-04  -2.6924957e-04  -3.7283980e-04  -6.5436363e-04  -7.6785850e-04  -1.8511172e-04  -1.5922908e-04  -2.5248775e-04  -3.3897406e-04  -4.4866595e-04   9.3041846e-05   6.3392358e-04  -1.2366047e-04  -9.6715122e-04  -8.4694257e-04  -2.7091697e-04  -1.7278087e-04  -3.5254860e-05  -4.1114065e-04  -3.0320262e-04  -1.0278824e-03  -6.3847181e-04  -3.0202887e-04  -4.1865352e-05  -9.9509827e-05  -1.7272987e-05   2.1210736e-05   2.4821014e-06  -4.2132342e-05   2.2187510e-05  -5.6944643e-05  -4.1051150e-05  -5.4402051e-05  -5.8933152e-05  -8.7050436e-05  -9.9306774e-05  -4.6541427e-05  -1.0095101e-04  -5.3900130e-05  -1.8085823e-05  -7.7364078e-05  -5.3553679e-05  -1.0888470e-04  -2.2403999e-05  -3.9893476e-06  -1.6934421e-05  -4.7952531e-05  -7.6140454e-05  -1.1827980e-04  -1.6339393e-04  -3.2901925e-05  -3.0826385e-05  -4.5180899e-05  -4.7493927e-05  -3.8430214e-05  -1.1116854e-04  -5.1304451e-05   1.3861952e-05   2.1575038e-05  -6.3505884e-05  -5.7360171e-05   1.2255139e-04   1.4572335e-04  -6.5598619e-05   1.0552516e-05   1.7820414e-05   8.4412528e-05   8.4528040e-05   3.3730430e-04  -8.7521917e-05   7.6161502e-05   1.7825969e-04   1.9673883e-04  -1.7049639e-04  -8.3792598e-05   1.7141194e-04  -1.6171098e-06   1.5932429e-04   1.9663362e-04   1.0913815e-04   2.7144912e-04   1.5426923e-04   1.0056807e-04   1.0240413e-04   7.0033181e-05   9.2560709e-05   1.8775445e-04   4.9200006e-05   1.3095749e-04   3.3713595e-04   6.1019543e-04   2.4603373e-04   6.5850430e-05  -1.0436253e-04   1.2030960e-04   2.2393857e-04   4.9696578e-04   2.9621366e-04   9.6438360e-06  -1.9379199e-04  -1.2933976e-04  -1.0373448e-04  -7.9199458e-05  -9.4187675e-05  -4.6949620e-05  -8.2790652e-06   6.9153790e-05   1.7938157e-05  -1.2944991e-05   2.4200955e-05  -3.4849159e-05  -2.3251257e-04   1.1344392e-05   8.9873087e-05  -3.3334395e-05   5.9389873e-05   1.6298086e-05  -5.7596529e-05  -8.8705193e-05  -3.5864021e-05  -2.0864296e-05  -3.4571733e-05  -7.7607733e-05  -3.4582767e-05   4.1639859e-05   8.4222584e-05  -1.0890148e-05  -1.1525173e-04  -1.1797298e-04  -6.9442213e-05   8.4498771e-07  -1.1909101e-04  -3.4266805e-05  -5.4427575e-05  -1.5670446e-04  -1.0108379e-04  -7.6531286e-05   1.8080750e-04   1.4746470e-04   8.7429967e-05   6.9455309e-05   1.1751623e-04  -1.9366181e-07   2.1718372e-04   1.4222876e-04   8.1509250e-05   8.9187731e-05   3.2877345e-04   1.5476532e-04   2.5550873e-04   3.1207341e-04   1.2377219e-04  -1.6269519e-04   3.1642007e-04   7.4344161e-05  -2.3407440e-05  -2.6047927e-05   2.5239305e-04   3.2180889e-05   5.2816422e-05   2.0002194e-04  -3.1043412e-05   4.2094066e-04   5.8056906e-04  -1.9816852e-04  -2.8949196e-04  -7.5672462e-04  -7.1100003e-05   1.1685215e-04   1.2587977e-03   1.6600433e-04  -1.9143321e-04  -3.0476353e-04  -4.4303877e-04  -1.6141162e-04   1.8459003e-04   3.4123549e-05   2.2425401e-05   1.4557378e-04   3.6796806e-05   3.8948223e-05  -8.7887393e-05  -2.9280967e-05  -3.0301839e-05  -7.5653881e-05  -1.0386254e-04   2.6871767e-05  -1.8164989e-04  -1.1471821e-04  -1.1744995e-04  -1.8363124e-04  -6.0337619e-05   7.4755103e-05   5.3068186e-05   2.5100954e-05  -4.3173653e-05   7.3761187e-06  -1.3278766e-05  -5.5386919e-05   1.2912219e-05  -8.7732521e-05  -2.1072469e-04   5.2169518e-05   6.1467971e-05  -3.0152572e-05  -1.6529189e-04   2.2579896e-05  -4.1171013e-05   4.8568759e-05   1.4760325e-06   1.5852563e-05  -5.9133740e-05  -1.1550296e-04   2.8482714e-04  -4.1249538e-05   2.7221228e-04   2.5134197e-04   1.9795720e-04   5.7172758e-05  -8.1019243e-07  -4.4870488e-04   7.4547140e-05   2.7300942e-04   3.2441046e-04   1.2413030e-04   2.8631528e-04   2.2469279e-04  -1.0876385e-04   1.2334935e-04   3.6049156e-04   2.8024683e-04   1.6724531e-04  -1.2222285e-04   1.7998900e-04  -1.3344079e-04   6.3638417e-05   1.9392998e-04   5.3414467e-04   4.4610165e-04   1.5558804e-04   4.5483019e-04  -6.1580019e-04  -9.9046024e-04   1.3778991e-04   2.2488850e-04   1.3833772e-03   3.1152351e-04  -6.8629665e-05  -7.0801814e-04  -4.0535813e-04   7.5229195e-04   1.2075313e-04   4.8215678e-04   7.5278858e-06   2.6747486e-04   7.9941514e-05   5.9015307e-05  -6.7011228e-05  -1.3817360e-04  -3.8052372e-05  -6.2172162e-05  -1.6273433e-04   1.1435204e-04  -4.1618890e-05  -1.3555645e-04   8.9852902e-06  -1.3178649e-04  -3.0624886e-04  -5.2364035e-06  -8.4119700e-05   1.1159332e-05   3.0983883e-07   2.5202251e-04   9.3175031e-06   2.0713209e-04  -2.3838440e-05   2.2201819e-05  -1.0642435e-04   8.3991462e-05   1.1228903e-04   1.1273113e-04   5.1532004e-05  -1.2200545e-04   1.1701964e-04   2.2511109e-04  -1.9201139e-05   6.6752008e-05  -1.7076460e-04  -1.3164576e-04  -4.9606940e-04  -3.3114725e-05  -5.0898162e-04  -2.1548059e-04  -3.4952463e-04  -8.6108486e-06  -4.3353602e-04  -3.2457977e-04  -3.2181750e-04  -1.4948825e-04  -7.9690196e-04   1.5413678e-04  -5.9578937e-04  -1.7127670e-04  -1.4222578e-04  -5.5191819e-04  -5.5695602e-04   1.6951213e-05  -1.7848247e-04   8.8605670e-05  -1.5685673e-04   3.0120726e-04  -1.0435178e-04  -1.5719949e-05  -5.0875289e-05  -2.4946286e-04  -2.9069152e-04   1.2252106e-05  -2.6351953e-04   1.4658160e-04  -3.2664824e-04   5.1652532e-05  -2.8322311e-04   1.9320203e-04  -1.6894418e-04  -1.0668390e-04   2.9070529e-04  -9.4095291e-06
   5.5456043e-06  -2.1949251e-05   7.5190725e-05  -3.9315844e-05   1.2931193e-05  -3.0787133e-05   5.5409250e-05   2.0727802e-05  -4.3439532e-05  -5.1990661e-05  -2.0248593e-05  -7.7692428e-05   1.2364762e-04   3.5254152e-05  -2.3304178e-05  -3.4474772e-05  -3.5040581e-05  -5.9675387e-05  -1.8764940e-05  -8.9756295e-05  -2.4815415e-05  -6.2044191e-05  -2.5085592e-05  -8.5203120e-05  -1.1258385e-04  -5.8346623e-05  -2.9307320e-05  -1.1291630e-04  -9.6802681e-05  -6.2470684e-05  -2.1010466e-06  -3.8630220e-05   2.5341654e-06  -4.2612041e-05  -5.1319229e-05  -2.7256676e-05  -3.6914033e-05  -8.9939835e-06   3.0272164e-04   8.1080287e-05  -2.3650443e-04   3.5830137e-04  -3.7032468e-04   1.1440519e-04   7.0129730e-05   1.6075646e-05  -3.2148450e-05   1.2229679e-04   2.8740393e-04   3.3485248e-04   3.2669888e-04   1.8442156e-04   3.2497021e-05   1.7452858e-05   1.5222817e-04   4.1332279e-04  -1.0529353e-04   2.0796581e-04  -1.1620003e-04   1.2954934e-04   3.1455550e-05   1.5766469e-04   4.2392454e-05   1.4127775e-04  -1.2818443e-04   2.9138615e-05   1.7054164e-04   1.7739359e-04   3.3914858e-04  -1.9804543e-04  -4.5273310e-04   5.2431872e-04   3.3275346e-05   1.3772902e-06   3.5105362e-04   1.0092123e-03  -5.2720177e-04  -3.3880559e-04  -4.4684549e-04  -4.9293627e-04  -5.5878720e-04  -3.6428020e-04  -2.5661428e-04  -6.5985694e-04  -4.3692781e-05  -9.2387914e-05  -1.0985783e-04  -4.3382126e-04  -6.3915486e-04  -6.4073389e-04  -6.1958873e-04  -2.4775245e-04  -2.3898771e-04  -3.8901777e-04  -6.6138411e-04  -8.0881062e-04  -1.6421936e-04  -1.5664549e-04  -2.4605407e-04  -3.5183495e-04  -4.8079545e-04   1.0896185e-04   6.3988270e-04  -1.5644128e-04  -9.1522835e-04  -4.7923727e-04  -4.7531042e-05  -1.5241745e-04   6.1047431e-05  -4.5224871e-04  -2.7044049e-04  -8.0954352e-04  -4.9533649e-04  -4.7101797e-04  -3.8898878e-05  -9.7306612e-05  -2.3068863e-05   2.9468813e-05  -1.3569088e-06  -3.7748392e-05   1.6220675e-05  -4.6934034e-05  -3.9311266e-05  -5.1473988e-05  -5.7342224e-05  -7.7245569e-05  -1.0281148e-04  -4.3844652e-05  -9.3889269e-05  -5.3919811e-05  -1.5325436e-05  -7.2591017e-05  -5.3528171e-05  -1.0014225e-04  -2.3613749e-05   5.6030110e-06  -1.4087192e-05  -4.8283852e-05  -7.0763378e-05  -1.1754096e-04  -1.6470067e-04  -2.4061190e-05  -1.6917578e-05  -1.7151917e-05  -4.3619231e-05  -4.0189548e-05  -1.3351402e-04  -4.5867177e-05   1.9036828e-05   2.8608727e-05  -4.9098846e-05  -5.4840217e-05   1.3131383e-04   1.5520892e-04  -7.6140663e-05   2.2259034e-05   1.4024770e-05   8.4450055e-05   6.2675535e-05   2.8967484e-04  -9.2464676e-05   7.1844282e-05   1.7282676e-04   1.9996657e-04  -1.7532109e-04  -1.0863875e-04   1.6513026e-04  -9.4171576e-06   1.5971594e-04   2.0824542e-04   1.0857596e-04   2.8655017e-04   1.6437910e-04   1.1026057e-04   1.0166703e-04   8.3729925e-05   1.0341224e-04   1.9001494e-04   5.7604287e-05   1.3399863e-04   3.2678265e-04   5.5133721e-04   2.0057109e-04   6.9247193e-05  -1.1710905e-04   1.4571986e-04   2.1567302e-04   4.6926307e-04   2.6870257e-04   1.5608388e-05  -1.8356827e-04  -1.2045836e-04  -9.8171030e-05  -7.8346929e-05  -8.6226715e-05  -3.9582516e-05  -1.2428985e-05   6.2854943e-05   2.7135476e-05  -3.4914351e-06   3.4196158e-05  -2.5795235e-05  -2.3561992e-04   1.0215838e-05   8.3751771e-05  -1.9753945e-05   7.0578654e-05   2.8091971e-05  -4.5549225e-05  -7.2399651e-05  -2.8371069e-05  -1.0633627e-05  -2.6192465e-05  -6.7850731e-05  -2.2145471e-05   5.0724881e-05   1.0063534e-04  -3.8540538e-07  -1.0132048e-04  -9.2320687e-05  -5.9153328e-05   1.1609503e-05  -1.0515360e-04  -3.2658885e-05  -4.2481883e-05  -1.3776238e-04  -8.1007739e-05  -7.4174979e-05   1.6375976e-04   1.3202388e-04   7.9205377e-05   5.0287569e-05   1.0922597e-04  -5.0502089e-06   2.0802857e-04   1.2632348e-04   4.8286325e-05   6.0925221e-05   3.2435624e-04   1.3492380e-04   2.7209801e-04   3.3122836e-04   1.1636370e-04  -1.8070261e-04   3.0980983e-04   7.7534654e-05  -2.4333931e-05  -2.3491031e-05   2.5181221e-04   1.5856610e-05   4.6383678e-05   1.7930979e-04  -6.9773399e-05   4.0187964e-04   5.4482275e-04  -2.3443409e-04  -2.7332228e-04  -6.6818636e-04  -5.5117926e-05   1.1132121e-04   1.2348716e-03   1.6661167e-04  -1.9122886e-04  -2.4380154e-04  -4.2493072e-04  -1.4675090e-04   1.6782730e-04   2.5895984e-05   1.5830804e-05   1.3996285e-04   2.7586542e-05   3.3973866e-05  -9.4571667e-05  -2.3050409e-05  -3.8618178e-05  -8.0818646e-05  -1.2088550e-04   1.9166471e-05  -1.9297001e-04  -1.1913163e-04  -1.2447021e-04  -1.9917625e-04  -6.7676122e-05   6.4991054e-05   4.3372961e-05   1.7825054e-05  -5.3395748e-05   5.6370778e-06  -2.0269931e-05  -6.0906142e-05   1.3396987e-05  -9.8325842e-05  -2.2902307e-04   5.1344120e-05   6.5672736e-05  -2.0133796e-05  -1.7625434e-04   1.3148785e-05  -6.5188376e-05   4.7469803e-05  -3.6193220e-06   1.3064962e-05  -7.0360958e-05  -1.3991504e-04   3.4575252e-04  -4.7670716e-06   2.8448572e-04   2.8391356e-04   2.1576695e-04   7.8044133e-05   9.6913078e-05  -2.0153315e-04   1.0094592e-04   2.9105282e-04   3.5168146e-04   1.6338441e-04   2.2178557e-04   3.6080582e-04   9.6313871e-05   1.3500936e-04   4.0272706e-04   3.1489778e-04   1.9549101e-04  -7.2332885e-05   2.0231357e-04  -1.0392626e-04   8.0594324e-05   2.0967241e-04   5.6431258e-04   4.9151489e-04   2.4043880e-04   4.8862597e-04  -6.0231743e-04  -8.5296233e-04   2.8622876e-04   2.5408735e-04   1.5213403e-03   3.2909669e-04  -5.3357663e-05  -6.3422666e-04  -3.7865478e-04   7.8014030e-04   1.3115289e-04   5.0312958e-04  -1.5997734e-05   2.7462819e-04   5.7167836e-05   6.0108794e-05  -7.6433203e-05  -1.4159204e-04  -5.2637588e-05  -7.2918499e-05  -1.6073453e-04   1.2970568e-04  -5.0099360e-05  -1.3411939e-04   4.8777512e-06  -1.4003349e-04  -3.1107137e-04   7.7658024e-06  -8.5908271e-05   1.8079009e-05   2.5337616e-07   2.7078152e-04   1.0401287e-05   2.2165405e-04  -1.8827313e-05   2.7341000e-05  -9.9320728e-05   9.4641213e-05   1.0837503e-04   1.2219405e-04   4.6132785e-05  -1.2040042e-04   9.7381708e-05   2.3804511e-04  -2.5175683e-05   4.6102222e-05  -1.7781133e-04  -1.3289331e-04  -5.2887120e-04  -5.4849597e-05  -4.8016665e-04  -2.3947387e-04  -3.4353437e-04   1.4250937e-07  -4.8514856e-04  -3.8729286e-04  -3.3171141e-04  -1.4561179e-04  -8.2722615e-04   1.5326917e-04  -5.7655657e-04  -1.9965346e-04  -1.8418734e-04  -5.4463564e-04  -5.9781429e-04  -2.0622145e-05  -1.7547444e-04   8.7730918e-05  -1.7276357e-04   2.8616123e-04  -9.8452385e-05  -3.1093123e-05  -4.1552135e-05  -2.4910997e-04  -3.0122134e-04   2.1479197e-05  -2.4636340e-04   1.4645193e-04  -3.3635242e-04   4.5027874e-05  -3.3031092e-04   1.7480629e-04  -1.6546130e-04  -1.0062329e-04   3.0551220e-04  -7.1660531e-06
   6.8982344e-07  -2.6756755e-05   6.7709772e-05  -3.9317009e-05   8.6733361e-06  -3.4033626e-05   5.8445087e-05   2.6667175e-05  -4.3583202e-05  -5.3264835e-05  -2.7008397e-05  -8.0329133e-05   1.1088638e-04   3.7184312e-05  -1.6613546e-05  -3.8087210e-05  -4.0878303e-05  -6.2422032e-05  -2.3903466e-05  -9.1634660e-05  -2.8991779e-05  -6.2762170e-05  -2.7658520e-05  -8.9695821e-05  -1.1374910e-04  -6.2313872e-05  -3.7457420e-05  -1.1644632e-04  -9.9643641e-05  -5.9419578e-05  -4.3700615e-06  -4.2189395e-05  -5.4209776e-06  -4.8464247e-05  -5.2647137e-05  -3.1284898e-05  -3.8952064e-05  -1.3990258e-05   3.1252122e-04   9.0820313e-05  -1.9558563e-04   3.7789428e-04  -3.3790415e-04   1.2437799e-04   1.1583569e-04   8.4411939e-05  -1.7782982e-05   1.3461697e-04   2.9109245e-04   3.3974548e-04   3.4793457e-04   2.2440428e-04   6.9130947e-05   3.4264722e-05   1.6094629e-04   4.0759567e-04  -1.0274576e-04   2.0173633e-04  -1.2108422e-04   1.5659054e-04   4.7562146e-05   1.5399389e-04   6.2731509e-05   1.4503292e-04  -1.0904978e-04   4.1425762e-05   2.0492151e-04   2.2213021e-04   3.9822083e-04  -2.0073644e-04  -4.5136456e-04   5.2845017e-04   5.6220834e-05   2.8460429e-05   4.0047250e-04   1.0603825e-03  -5.4334424e-04  -3.5083753e-04  -4.4383415e-04  -5.2822702e-04  -5.6647711e-04  -3.7060380e-04  -3.2368384e-04  -8.5519230e-04  -5.3226134e-05  -6.7850460e-05  -8.7467349e-05  -4.4649420e-04  -6.0798082e-04  -7.0637385e-04  -8.4597416e-04  -2.5224173e-04  -2.0962588e-04  -4.0711002e-04  -6.6526540e-04  -8.4370600e-04  -1.4543490e-04  -1.5746902e-04  -2.3970343e-04  -3.6938232e-04  -5.1751888e-04   1.2276521e-04   6.3277333e-04  -1.9899143e-04  -8.3953261e-04  -1.2476379e-05   2.3298405e-04  -1.3659705e-04   1.6448235e-04  -4.9574622e-04  -2.2866954e-04  -5.3474038e-04  -3.1656540e-04  -6.5770246e-04  -3.7649438e-05  -9.5569644e-05  -2.6141200e-05   3.6036428e-05  -3.2689569e-06  -3.3231403e-05   1.1957611e-05  -3.4906121e-05  -3.7568206e-05  -4.8327968e-05  -5.3842199e-05  -6.8353327e-05  -1.0388482e-04  -4.1040979e-05  -8.6612205e-05  -5.2674272e-05  -1.1539859e-05  -6.7757653e-05  -5.2191244e-05  -9.3190506e-05  -2.4095732e-05   1.4332027e-05  -1.1232084e-05  -4.8990931e-05  -6.5792076e-05  -1.1576456e-04  -1.6284220e-04  -1.6085364e-05  -4.7439852e-06   8.8936435e-06  -4.0885605e-05  -4.0376137e-05  -1.4900562e-04  -4.2247975e-05   2.3282223e-05   3.5300112e-05  -3.5747464e-05  -5.4774941e-05   1.3921928e-04   1.6511929e-04  -8.3136519e-05   3.2128758e-05   1.3757344e-05   8.4847903e-05   3.9091785e-05   2.4153030e-04  -9.6648553e-05   6.6930707e-05   1.6775951e-04   2.0004725e-04  -1.7849938e-04  -1.3307828e-04   1.5762038e-04  -1.4062596e-05   1.5903900e-04   2.1871924e-04   1.0939294e-04   2.9892833e-04   1.7447319e-04   1.1897663e-04   1.0106403e-04   9.6995961e-05   1.1516151e-04   1.9034483e-04   7.0022627e-05   1.3753600e-04   3.1367515e-04   4.8809677e-04   1.5380590e-04   7.6796911e-05  -1.2283538e-04   1.6598522e-04   2.0724818e-04   4.3574747e-04   2.4094741e-04   2.2004507e-05  -1.7224139e-04  -1.1101903e-04  -9.0822801e-05  -7.8136554e-05  -7.7561138e-05  -3.1875002e-05  -1.5932623e-05   5.4916112e-05   3.6211606e-05   6.4123046e-06   4.5067392e-05  -1.6584888e-05  -2.3482791e-04   9.3199786e-06   7.5716720e-05  -5.8026044e-06   8.2004887e-05   3.9815202e-05  -3.2208989e-05  -5.5622370e-05  -2.0392772e-05  -1.3523247e-06  -1.7649241e-05  -5.7958241e-05  -1.0036080e-05   5.9751817e-05   1.1686450e-04   1.0080364e-05  -8.6308394e-05  -6.7060400e-05  -4.9978307e-05   2.2763982e-05  -9.0491978e-05  -3.1479682e-05  -3.0219238e-05  -1.1802693e-04  -6.0225627e-05  -7.1437560e-05   1.4321984e-04   1.1521678e-04   6.7749403e-05   2.7292735e-05   9.9258129e-05  -1.2372944e-05   1.9572331e-04   1.1101728e-04   1.5496757e-05   2.8574873e-05   3.1295547e-04   1.0996795e-04   2.8358356e-04   3.5225050e-04   1.1182818e-04  -1.9730893e-04   2.9986454e-04   7.7347953e-05  -2.6989961e-05  -2.3661769e-05   2.4903128e-04  -1.9802836e-06   3.7367588e-05   1.5505950e-04  -1.0940661e-04   3.7602942e-04   5.1636077e-04  -2.7216680e-04  -2.6654173e-04  -5.8429248e-04  -4.3605352e-05   1.0536239e-04   1.2169365e-03   1.6051983e-04  -1.9589797e-04  -1.9100250e-04  -4.1171618e-04  -1.3743961e-04   1.5199659e-04   1.9342061e-05   1.1314838e-05   1.3469547e-04   1.9599990e-05   3.0395948e-05  -9.9292821e-05  -1.6211030e-05  -4.4708924e-05  -8.3045141e-05  -1.3453311e-04   1.3900792e-05  -1.9980034e-04  -1.2165062e-04  -1.3118706e-04  -2.1092213e-04  -7.2877287e-05   5.5971841e-05   3.5718303e-05   1.3208305e-05  -6.1770011e-05   5.6978122e-06  -2.4858905e-05  -6.3880562e-05   1.6175289e-05  -1.0602200e-04  -2.4408741e-04   5.2103752e-05   7.1881236e-05  -7.7322063e-06  -1.8413420e-04   4.8835578e-06  -8.8622795e-05   4.5797790e-05  -7.2089409e-06   1.1647443e-05  -8.0305896e-05  -1.6266298e-04   4.0960719e-04   3.1120804e-05   2.9527451e-04   3.1111336e-04   2.3496851e-04   9.5388576e-05   2.1318317e-04   9.4837034e-05   1.2325242e-04   3.0385892e-04   3.6932064e-04   1.9654235e-04   1.4250411e-04   4.9897186e-04   3.3315927e-04   1.4399216e-04   4.3822978e-04   3.3993625e-04   2.1937673e-04  -2.7798291e-05   2.2119197e-04  -7.8467256e-05   9.2575458e-05   2.0990087e-04   5.7955900e-04   5.3110352e-04   3.2717223e-04   5.0453394e-04  -5.7204805e-04  -6.8039874e-04   4.5390897e-04   2.7956917e-04   1.6599376e-03   3.2975852e-04  -3.6637454e-05  -5.3260493e-04  -3.4623265e-04   7.7904774e-04   1.4105778e-04   5.1928508e-04  -3.7462730e-05   2.7723040e-04   3.5954005e-05   6.0517570e-05  -8.5287048e-05  -1.4632454e-04  -6.5028438e-05  -8.1347632e-05  -1.5502340e-04   1.4299484e-04  -5.3641751e-05  -1.3041080e-04  -6.5963043e-06  -1.4511080e-04  -3.1036754e-04   2.0960444e-05  -8.2850627e-05   2.3473171e-05   2.8182882e-06   2.8580481e-04   1.2802742e-05   2.3535735e-04  -1.3970443e-05   3.2729680e-05  -8.8873687e-05   1.0380583e-04   1.0249789e-04   1.2571810e-04   3.7756733e-05  -1.1343642e-04   8.4488376e-05   2.4234226e-04  -3.0627735e-05   2.5125193e-05  -1.8753272e-04  -1.3680617e-04  -5.5993841e-04  -7.4407389e-05  -4.5379657e-04  -2.5691457e-04  -3.3975711e-04   7.7705998e-06  -5.4041285e-04  -4.5971178e-04  -3.4022546e-04  -1.4184824e-04  -8.5829370e-04   1.5289798e-04  -5.5716452e-04  -2.2905374e-04  -2.3470424e-04  -5.3810305e-04  -6.3642093e-04  -6.0528331e-05  -1.7748285e-04   8.4046643e-05  -1.8830965e-04   2.7165216e-04  -9.4123376e-05  -4.6111332e-05  -3.6442889e-05  -2.4744772e-04  -3.1406438e-04   2.7019173e-05  -2.3181947e-04   1.4919907e-04  -3.4372643e-04   3.2476833e-05  -3.8140288e-04   1.6194757e-04  -1.6400230e-04  -9.2328946e-05   3.1405833e-04  -8.3623587e-06
  -4.3678980e-06  -3.1955702e-05   5.9926335e-05  -3.9348343e-05   4.1176015e-06  -3.6925131e-05   6.1470691e-05   3.3377817e-05  -4.3405255e-05  -5.3788654e-05  -3.3453557e-05  -8.2175508e-05   9.7681557e-05   3.8927092e-05  -9.3558169e-06  -4.1140669e-05  -4.6376668e-05  -6.4871963e-05  -2.9236507e-05  -9.3021340e-05  -3.3138028e-05  -6.3405551e-05  -3.0323784e-05  -9.3724848e-05  -1.1465834e-04  -6.5878635e-05  -4.6402712e-05  -1.1956216e-04  -1.0180986e-04  -5.6156311e-05  -6.8814836e-06  -4.6231741e-05  -1.4314080e-05  -5.3159997e-05  -5.3591589e-05  -3.4363903e-05  -4.0246186e-05  -1.9736745e-05   3.2303492e-04   9.9898533e-05  -1.5250687e-04   3.9333772e-04  -3.0618992e-04   1.3176299e-04   1.6098977e-04   1.5802991e-04  -2.3840275e-06   1.4611197e-04   2.9595271e-04   3.4113518e-04   3.6435728e-04   2.7290900e-04   1.1242640e-04   4.7595981e-05   1.7097924e-04   3.9646272e-04  -1.0374168e-04   1.9043094e-04  -1.2501037e-04   1.7572793e-04   5.7794798e-05   1.4606315e-04   8.1163740e-05   1.4849037e-04  -9.6616968e-05   4.8196054e-05   2.4263413e-04   2.7944126e-04   4.7415996e-04  -2.0589652e-04  -4.3835992e-04   5.2934012e-04   8.4406284e-05   6.6542982e-05   4.5065042e-04   1.0859588e-03  -5.5943910e-04  -3.6412234e-04  -4.3494016e-04  -5.6662686e-04  -5.7175733e-04  -3.7519400e-04  -3.9222653e-04  -1.0498298e-03  -6.3478275e-05  -4.2586756e-05  -6.4344523e-05  -4.5723224e-04  -5.6924403e-04  -7.7173605e-04  -1.0733818e-03  -2.5204269e-04  -1.8190628e-04  -4.2619349e-04  -6.6576499e-04  -8.7105818e-04  -1.2920504e-04  -1.6148160e-04  -2.3352488e-04  -3.9117105e-04  -5.5782564e-04   1.3447986e-04   6.1327877e-04  -2.4969667e-04  -7.4262302e-04   5.4529408e-04   5.6432530e-04  -1.2584459e-04   2.7189998e-04  -5.4081440e-04  -1.7905889e-04  -2.1109228e-04  -1.0794801e-04  -8.5601425e-04  -3.8559137e-05  -9.4776395e-05  -2.6332763e-05   4.0654920e-05  -3.2685373e-06  -2.8848941e-05   9.4055154e-06  -2.1558629e-05  -3.6082885e-05  -4.5220361e-05  -4.8714505e-05  -6.0919687e-05  -1.0267991e-04  -3.8572933e-05  -7.9693257e-05  -5.0408415e-05  -6.9247670e-06  -6.3334519e-05  -4.9834937e-05  -8.8658088e-05  -2.3964253e-05   2.1727473e-05  -8.5809893e-06  -5.0195959e-05  -6.1760404e-05  -1.1314276e-04  -1.5822734e-04  -9.3746389e-06   5.1439461e-06   3.1641603e-05  -3.9633112e-05  -3.9263925e-05  -1.5738874e-04  -4.0394246e-05   2.6386335e-05   4.1455926e-05  -2.4134360e-05  -5.7402139e-05   1.4644066e-04   1.7523252e-04  -8.6138484e-05   3.9729600e-05   1.7145462e-05   8.5712366e-05   1.4768266e-05   1.9534928e-04  -9.9949118e-05   6.1667647e-05   1.6323203e-04   1.9699416e-04  -1.7990795e-04  -1.5624704e-04   1.4943060e-04  -1.5200780e-05   1.5725529e-04   2.2794509e-04   1.1196940e-04   3.0870833e-04   1.8450016e-04   1.2639785e-04   1.0072982e-04   1.0965491e-04   1.2757968e-04   1.8867411e-04   8.5743816e-05   1.4161778e-04   2.9858234e-04   4.2285580e-04   1.0761759e-04   8.8533201e-05  -1.2097296e-04   1.8070147e-04   1.9919607e-04   3.9785666e-04   2.1402100e-04   2.8696201e-05  -1.6010266e-04  -1.0132221e-04  -8.2115898e-05  -7.8717852e-05  -6.8578598e-05  -2.4165080e-05  -1.8902915e-05   4.5410021e-05   4.5083905e-05   1.6441232e-05   5.6493986e-05  -7.5297890e-06  -2.3034063e-04   8.7697944e-06   6.6296444e-05   8.1198483e-06   9.3330324e-05   5.1109574e-05  -1.8036263e-05  -3.8845567e-05  -1.2171266e-05   6.5232343e-06  -9.3173545e-06  -4.8229566e-05   1.4240399e-06   6.8530541e-05   1.3262299e-04   2.0254121e-05  -7.1047754e-05  -4.4326357e-05  -4.2606762e-05   3.4072141e-05  -7.5549634e-05  -3.0954735e-05  -1.8216025e-05  -9.8913464e-05  -3.9954611e-05  -6.8331942e-05   1.2074540e-04   9.8504449e-05   5.3838010e-05   2.0404544e-06   8.8453244e-05  -2.1726861e-05   1.8156990e-04   9.7092175e-05  -1.5359270e-05  -6.6211245e-06   2.9528150e-04   8.0966198e-05   2.9121760e-04   3.7563348e-04   1.1067707e-04  -2.1157909e-04   2.8754552e-04   7.4437824e-05  -3.0863957e-05  -2.6465547e-05   2.4462351e-04  -2.0024206e-05   2.6345053e-05   1.2933814e-04  -1.4809936e-04   3.4452200e-04   4.9743263e-04  -3.0992888e-04  -2.6985194e-04  -5.0867816e-04  -3.6034035e-05   1.0011995e-04   1.2079019e-03   1.4806514e-04  -2.0586323e-04  -1.4925186e-04  -4.0448115e-04  -1.3312606e-04   1.3806367e-04   1.4920207e-05   9.1033615e-06   1.3033089e-04   1.3274442e-05   2.8493071e-05  -1.0163762e-04  -8.8385456e-06  -4.8360840e-05  -8.2053114e-05  -1.4422793e-04   1.1379532e-05  -2.0202093e-04  -1.2206372e-04  -1.3739525e-04  -2.1856048e-04  -7.5646091e-05   4.8132901e-05   3.0424176e-05   1.1346711e-05  -6.8047187e-05   7.5933229e-06  -2.6874128e-05  -6.4166216e-05   2.1117470e-05  -1.1041587e-04  -2.5562378e-04   5.4502991e-05   7.9997178e-05   6.5181951e-06  -1.8863148e-04  -2.0514994e-06  -1.1078616e-04   4.3803482e-05  -9.0833858e-06   1.1665154e-05  -8.8661834e-05  -1.8309358e-04   4.7384948e-04   6.4150682e-05   3.0341811e-04   3.3234441e-04   2.5381516e-04   1.0823725e-04   3.4460399e-04   4.3084256e-04   1.3886475e-04   3.1015730e-04   3.7734372e-04   2.2165080e-04   5.1020703e-05   6.3159506e-04   5.9165241e-04   1.4785118e-04   4.6574325e-04   3.5466261e-04   2.3720613e-04   8.3120249e-06   2.3568681e-04  -5.9018399e-05   9.8541705e-05   1.9377349e-04   5.7856936e-04   5.6367103e-04   4.1074918e-04   5.0144662e-04  -5.2574339e-04  -4.7966520e-04   6.3590616e-04   2.9927159e-04   1.7939249e-03   3.1559490e-04  -1.9207403e-05  -4.0631293e-04  -3.0870315e-04   7.4984404e-04   1.4905695e-04   5.2971946e-04  -5.6536440e-05   2.7509963e-04   1.6925650e-05   5.9763558e-05  -9.3728561e-05  -1.5360147e-04  -7.5480695e-05  -8.7694109e-05  -1.4608548e-04   1.5301134e-04  -5.3006154e-05  -1.2520344e-04  -2.6105619e-05  -1.4765856e-04  -3.0426388e-04   3.3245807e-05  -7.5496278e-05   2.5904923e-05   7.6692845e-06   2.9609740e-04   1.6096351e-05   2.4741437e-04  -1.0225528e-05   3.7979054e-05  -7.5728675e-05   1.1078382e-04   9.4425430e-05   1.2242624e-04   2.6172379e-05  -1.0164838e-04   7.8667693e-05   2.3762282e-04  -3.5594899e-05   4.2974269e-06  -2.0010931e-04  -1.4325973e-04  -5.8951478e-04  -9.1469870e-05  -4.3180054e-04  -2.6762077e-04  -3.3920286e-04   1.3922236e-05  -5.9902617e-04  -5.4064103e-04  -3.4751214e-04  -1.3840192e-04  -8.8958317e-04   1.5330838e-04  -5.3879466e-04  -2.5885949e-04  -2.9358905e-04  -5.3312226e-04  -6.7198432e-04  -1.0131165e-04  -1.8470426e-04   7.7969799e-05  -2.0360308e-04   2.5837979e-04  -9.1650939e-05  -6.0684275e-05  -3.5752923e-05  -2.4460571e-04  -3.2906816e-04   2.8815910e-05  -2.2031403e-04   1.5503867e-04  -3.4866529e-04   1.4013974e-05  -4.3521777e-04   1.5513331e-04  -1.6492494e-04  -8.2216645e-05   3.1645149e-04  -1.2805524e-05
