  -2.8352295e-05  -3.6542668e-05   7.8276577e-05  -5.7999617e-05   2.0674822e-05   6.1615529e-06   2.3636082e-04   1.5410257e-04   9.4399852e-05   1.0916733e-05  -3.3283743e-05  -1.1040232e-04   2.0125042e-05   9.4638767e-05   1.7778517e-04   1.2557477e-05  -6.9383664e-05  -9.3266577e-05  -5.1896171e-05  -1.8269716e-04  -1.1792908e-04  -2.3254425e-06  -2.6827220e-05  -2.6268703e-05   4.2646580e-05  -4.5043057e-05  -8.0350993e-05  -2.0010320e-05  -5.7646133e-05   0.0000000e+00   5.2751809e-04  -1.0067662e-04  -1.3204789e-04  -8.1430439e-05  -2.0301796e-05   2.3386203e-04   2.5196434e-04   2.2903614e-05   3.0613148e-04   3.1122734e-04  -1.9062868e-04   9.9715113e-05  -4.1238817e-04  -6.6996692e-04  -5.3902326e-04   5.4266134e-05  -2.4162884e-04  -1.3569663e-04  -1.3834187e-04  -7.8228197e-05  -2.1848297e-04  -3.1067318e-04  -2.8875227e-04  -1.3180791e-04  -2.1585675e-04   2.9011839e-05  -5.4814962e-04   9.9983878e-06   1.3151873e-05  -2.8845018e-04  -4.1561492e-04  -2.1359137e-04  -7.5070480e-05  -2.9920619e-04  -2.5577205e-04  -8.5389766e-05   1.1361251e-04   0.0000000e+00  -1.0332669e-03  -1.7178348e-04  -1.8731951e-04  -4.1548046e-05  -8.1535002e-05  -3.6788116e-04  -4.4486096e-04   4.3114840e-05  -1.2574474e-04  -6.3707063e-04   2.0992406e-03   3.4572959e-04   4.2348542e-03   3.3291602e-03   1.6372562e-04   5.0328404e-04   2.1353999e-04   6.7567434e-04   8.3433860e-04   3.4350651e-04  -8.7506288e-05  -1.4300118e-04   2.8826525e-04   7.2428052e-04   5.9786397e-04   9.3190276e-05   1.5112225e-03  -3.7753582e-04  -7.6134081e-04   4.2280715e-03   2.3441402e-03   2.3741576e-03   2.1915853e-03   2.6850917e-03   1.4841199e-03   6.3241919e-04   5.3654331e-04   0.0000000e+00   7.2360378e-04   7.0483879e-04   1.0268351e-04   3.5657881e-04   5.9798224e-04   2.4278346e-04  -3.1546246e-04  -2.1321451e-04  -4.1874806e-05  -5.4644849e-05  -6.4193860e-05  -6.1733634e-05  -3.0078560e-05  -5.4384320e-05  -1.8095125e-04  -1.0095655e-04  -7.1235172e-05  -2.7009008e-05  -4.3033214e-05  -7.7081488e-05  -1.9180719e-04  -8.3596174e-05  -7.6697166e-05  -2.4365315e-05   2.4319572e-05   1.8438010e-05  -9.8192152e-06  -1.4353109e-05  -1.1476185e-05  -6.1665833e-05  -3.0550137e-05  -6.7700177e-05  -7.4361386e-05  -9.6292524e-06  -1.2941119e-05  -2.3005042e-05   1.2114989e-05   0.0000000e+00  -3.4589007e-04   2.4917522e-05   4.3248957e-05  -3.6961232e-05  -5.5054762e-05  -9.1749493e-05  -2.2369195e-04  -6.9010178e-05  -1.0959785e-04  -4.8681286e-05   9.6987566e-05  -1.5241926e-04   4.3982517e-05   4.7460201e-06   3.3949656e-04  -2.4242685e-04   6.4886991e-05  -3.3573577e-05  -1.0652626e-04  -1.3175772e-04   3.1063431e-04   1.4036306e-04   1.8759464e-04  -1.1679052e-04  -8.9055566e-05  -1.1299439e-04   3.8051424e-05  -1.7216040e-04  -1.1502216e-04   2.1626068e-04   7.2070780e-05   5.0963967e-05   1.1370739e-04   1.6706896e-04   4.5707117e-05   5.4084092e-05  -9.7284657e-05   0.0000000e+00   6.1304951e-04   1.0339272e-04   1.5206571e-04  -6.7352281e-05  -2.3979642e-05   2.5062257e-04   2.1264625e-04   1.2139197e-04  -3.8812489e-05   4.5688649e-06  -7.9513403e-07  -2.9744709e-05  -1.4370933e-05  -8.5936331e-06   5.3899038e-05  -1.3269932e-04   3.6896557e-05  -1.0027537e-05  -2.3919412e-05  -1.4289970e-05   7.7479693e-05   1.0408718e-04   8.9326159e-05  -6.2537890e-05  -1.9353303e-05  -4.0282743e-05  -5.6698761e-05  -8.3146990e-05  -4.5249344e-05   1.1799644e-05   1.6329789e-05   1.9657212e-05   2.5449714e-05  -1.0207746e-06  -9.8668138e-06  -2.1616344e-05  -5.5296224e-05   0.0000000e+00   1.8228060e-04  -4.3678164e-05  -3.7849999e-05  -1.8316045e-05   9.6482722e-06   4.4029067e-05   1.0212297e-04   1.1581308e-05   8.3719220e-05   1.1398329e-04   1.2713036e-04   3.3339916e-05   6.2683015e-05  -4.0852707e-05   4.8148281e-05  -1.3905616e-06   1.3741718e-05   1.2466356e-04   7.2611898e-05  -1.6719219e-05   6.6451097e-04   4.4147203e-05  -1.0529318e-04   2.0083384e-05  -1.2093103e-04  -2.4776924e-04  -6.7891727e-04  -3.2896953e-04  -1.4442253e-04   2.0023508e-04   9.5351381e-05   3.4072999e-04   3.1309533e-04   5.1283103e-05   3.5766221e-05   1.1971554e-04   4.3999447e-05   0.0000000e+00  -1.2180060e-05  -3.1678655e-04  -6.0583109e-04  -4.8388790e-05   1.6225405e-04  -1.7138659e-04  -1.4499563e-04  -1.6939789e-04  -5.7887565e-05  -9.1678087e-06   8.9643990e-05  -7.0441823e-05   7.5980959e-05   2.3105988e-05  -1.4419069e-04  -9.9425573e-04  -1.3309456e-04  -5.6758479e-06  -5.3059190e-05  -1.1731923e-04  -9.4891365e-05  -2.0301349e-04  -1.4666364e-04  -2.4924567e-04  -7.7008469e-05  -1.0282112e-04  -6.5046798e-06  -1.3535657e-04  -3.4831346e-05   3.2455968e-05   1.9046202e-05  -7.7383380e-05   5.7752640e-05  -1.4013938e-05  -5.7351899e-05  -1.6182219e-05  -7.1039360e-05   0.0000000e+00   3.3449133e-04   1.8533721e-05   1.1692829e-06  -7.2258386e-05   5.6350511e-06   8.4105571e-05  -1.7703176e-04  -4.5156506e-04   9.9705237e-05   9.5475608e-05   6.1388173e-05   9.6515195e-05   6.6070016e-05  -3.4123086e-06  -1.4027128e-04  -2.0253097e-04  -4.0747670e-05   7.6396374e-05   1.2955799e-04  -1.6519474e-06   2.7097164e-04  -8.0551451e-05  -1.5939605e-04  -7.0722781e-06   8.0790563e-05   2.8472861e-05  -3.8385625e-05  -2.4192495e-04  -1.6484317e-05   5.2065359e-05   4.9008978e-05   6.8227798e-05   5.7417683e-05   1.1680441e-04   1.3501435e-04   1.0129475e-04   1.1278437e-04   0.0000000e+00  -2.5358298e-04  -1.0259356e-05  -4.7372531e-05   8.5262302e-05   1.0430335e-04  -1.7245693e-04  -1.9128158e-04   2.2827851e-05  -5.5254310e-05  -5.8216748e-05  -3.1025192e-05   1.4585303e-05   1.2227861e-04   1.4040969e-04  -2.8231941e-04   2.9763703e-04   2.3684520e-05   1.4927107e-05  -3.8626222e-05  -7.9238813e-06  -1.7690155e-04  -1.7341559e-04  -3.9161302e-05   1.2542098e-04  -2.5226692e-05  -1.0708394e-04  -2.6565536e-04   9.4768829e-05   3.8532654e-06   3.0723096e-04   1.6655023e-04   1.1560090e-04   7.7127741e-05   1.9862891e-04   1.1502374e-04  -2.3014897e-06  -1.4639195e-05   0.0000000e+00  -3.2492389e-04  -6.9726348e-06  -1.3250403e-04  -7.7066352e-06   1.9592338e-05  -7.5776358e-05   2.1844758e-05  -1.6229942e-04  -1.8970213e-05   2.6666588e-04  -3.6142580e-06   2.9379598e-04  -1.4822529e-04   3.9705069e-04  -2.3149977e-04  -3.1250428e-04   9.9247942e-07   2.4391845e-04   3.5500925e-04   3.5161211e-04   1.1360368e-04  -1.1293432e-04  -5.7114269e-05   9.9773452e-05   1.4435485e-04   9.5978383e-05   1.3086162e-04   2.8867798e-04   3.2634953e-04  -1.2719023e-04   7.3632024e-05   3.5805725e-04  -2.5842208e-05   4.5598227e-05   3.7310689e-04   2.0810671e-04  -6.9531429e-05   0.0000000e+00  -1.2058225e-04   1.2683234e-04   2.0966153e-04   2.0011630e-04   1.6848686e-04  -5.1707906e-05  -2.1418142e-05   2.3934736e-04
  -3.2492539e-05  -4.2930123e-05   8.5388493e-05  -7.1343543e-05   2.0674684e-05   1.6878157e-06   2.3975322e-04   1.7573167e-04   9.7892609e-05   1.2667597e-05  -3.4137953e-05  -1.2853444e-04   1.9775995e-05   9.5656171e-05   1.8565975e-04   1.9177155e-05  -7.5453613e-05  -9.9989728e-05  -6.5727585e-05  -2.1631992e-04  -1.3979731e-04  -6.1159137e-06  -3.1225169e-05  -2.8752712e-05   4.4076938e-05  -4.6639176e-05  -8.5967795e-05  -2.0457803e-05  -5.7361519e-05   0.0000000e+00   5.2300179e-04  -1.1762243e-04  -1.5433064e-04  -8.8153177e-05  -2.4008265e-05   2.4857192e-04   2.4886018e-04   3.4414912e-05   3.3023971e-04   3.1607232e-04  -1.7958870e-04   9.7962299e-05  -3.9840272e-04  -6.8865747e-04  -5.3041834e-04   7.8052222e-05  -2.5596172e-04  -1.3792710e-04  -1.5291681e-04  -8.3906953e-05  -2.1117569e-04  -3.0048219e-04  -2.8825084e-04  -1.4871406e-04  -2.2888350e-04   3.8089885e-05  -5.4136473e-04   1.4239738e-05  -1.3965547e-05  -2.5308887e-04  -4.1197586e-04  -1.9497037e-04  -4.8714089e-05  -2.5917808e-04  -2.5502732e-04  -7.4064176e-05   1.3334924e-04   0.0000000e+00  -1.0890899e-03  -1.5479079e-04  -1.7390405e-04  -3.0830140e-05  -8.5291387e-05  -3.8165320e-04  -4.8034345e-04   4.9499834e-05  -6.1371502e-05  -6.2254066e-04   2.2318250e-03   4.2003225e-04   4.5260480e-03   3.6413966e-03   2.4405396e-04   5.5600482e-04   2.2514259e-04   7.4139301e-04   9.2853856e-04   3.9664536e-04  -5.4996931e-05  -1.5950497e-04   3.1492826e-04   7.9815076e-04   6.4618777e-04   1.0394782e-04   1.6499980e-03  -3.8963244e-04  -7.8933352e-04   4.3593918e-03   2.4930547e-03   2.5970104e-03   2.2486364e-03   2.8529605e-03   1.6582185e-03   7.2358025e-04   5.5449936e-04   0.0000000e+00   7.7686269e-04   7.5755818e-04   1.3777255e-04   4.1410137e-04   6.4888984e-04   2.7085474e-04  -3.3549017e-04  -1.8754796e-04  -4.0035784e-05  -6.0671697e-05  -7.6820133e-05  -6.8288212e-05  -3.9822225e-05  -6.3310052e-05  -1.9775117e-04  -1.0708407e-04  -8.2983338e-05  -2.8904197e-05  -4.6614462e-05  -8.3422247e-05  -2.0788641e-04  -9.3049204e-05  -9.7430074e-05  -2.9082165e-05   2.9962605e-05   3.0386746e-05  -1.3918627e-06  -4.9667236e-06  -8.3981879e-06  -7.4529827e-05  -3.6889130e-05  -7.6986080e-05  -8.3522941e-05  -4.2217600e-06  -5.4351310e-06  -1.6840246e-05   2.0703426e-05   0.0000000e+00  -4.0136082e-04   3.5787646e-05   5.5679308e-05  -3.2731699e-05  -5.9633769e-05  -1.1415833e-04  -2.5566776e-04  -7.4353944e-05  -1.2804631e-04  -5.6651895e-05   1.2417136e-04  -1.5488141e-04   8.6845240e-05   3.9826027e-05   3.7969269e-04  -2.2549366e-04   8.8729432e-05  -2.1653600e-05  -1.0037413e-04  -1.2095545e-04   3.6082832e-04   1.7283849e-04   2.1470599e-04  -1.1255799e-04  -8.2627038e-05  -1.1621056e-04   6.3306162e-05  -1.7458266e-04  -1.1893105e-04   2.6592088e-04   1.0290280e-04   8.1306901e-05   1.2911912e-04   2.1133043e-04   7.1481989e-05   6.7297658e-05  -1.1047740e-04   0.0000000e+00   6.5469337e-04   1.1578830e-04   1.6160178e-04  -6.8355995e-05  -2.3807769e-05   2.7454608e-04   2.4155697e-04   1.3897667e-04  -3.2844549e-05   8.5582497e-06   5.4743607e-07  -2.1874596e-05  -1.5409772e-05  -1.1504976e-05   4.7406529e-05  -1.1255137e-04   4.0488504e-05  -8.5001754e-06  -1.7523645e-05  -1.2978873e-05   7.8382935e-05   1.1052118e-04   8.6851832e-05  -5.7664345e-05  -1.1905046e-05  -3.2385708e-05  -5.0892471e-05  -8.8399221e-05  -4.4668106e-05   1.1052976e-05   2.0330864e-05   2.3482987e-05   2.9782313e-05   5.9509261e-06   5.6787349e-07  -1.4868117e-05  -4.7152776e-05   0.0000000e+00   1.5973065e-04  -3.7790148e-05  -2.6473917e-05  -1.1523566e-05   1.4301115e-05   3.3533363e-05   1.0625606e-04   3.6639693e-05   5.6545759e-05   1.1959610e-04   1.6198656e-04   2.9888700e-06   1.2251677e-04   6.4944519e-06  -1.5678573e-05   1.6542287e-05   2.2967823e-05   1.6269027e-04   8.6697806e-05  -1.9006926e-05   7.4966300e-04   5.1615129e-05  -1.2218371e-04   3.6723863e-05  -1.4065060e-04  -2.9317966e-04  -8.0799619e-04  -3.7686319e-04  -1.7013826e-04   2.7837118e-04   1.5278767e-04   4.1759248e-04   3.7407468e-04   1.2312928e-04   7.5811869e-05   1.2445913e-04   4.2156680e-05   0.0000000e+00  -2.4110593e-05  -3.3334932e-04  -6.7415647e-04  -5.7570408e-05   2.0351812e-04  -2.0642341e-04  -1.7480898e-04  -2.1563532e-04  -5.3603475e-05  -8.0370935e-06   7.5913438e-05  -8.1073479e-05   7.2697895e-05   7.8900907e-06  -1.8862853e-04  -1.0851844e-03  -1.5823556e-04  -1.1342309e-05  -6.5329070e-05  -1.2300768e-04  -1.7901805e-04  -2.4190788e-04  -1.8829583e-04  -2.7987787e-04  -8.2533987e-05  -1.1092955e-04  -3.7820967e-05  -1.4709404e-04  -4.3201866e-05   2.7359840e-05   3.8254190e-06  -7.9636484e-05   4.6529379e-05  -3.0038447e-05  -7.5527244e-05  -2.1435619e-05  -7.6635405e-05   0.0000000e+00   2.7031985e-04   1.2237250e-06  -3.1764130e-05  -8.1101559e-05  -2.3080494e-06   5.0141486e-05  -2.1356184e-04  -4.7775141e-04   1.0921397e-04   1.0843006e-04   7.0605503e-05   1.1309485e-04   7.5215330e-05   3.5171524e-06  -1.5482122e-04  -2.3144574e-04  -4.1724511e-05   8.5376048e-05   1.4651829e-04   1.2995154e-05   3.0623180e-04  -8.6749559e-05  -1.7598279e-04  -5.1045317e-06   9.7716500e-05   4.3771966e-05  -2.1432600e-05  -2.4095111e-04   6.2779122e-06   7.1055235e-05   6.9484378e-05   8.2220978e-05   6.8175936e-05   1.4435917e-04   1.7017972e-04   1.1649125e-04   1.2632442e-04   0.0000000e+00  -2.5869411e-04   1.0549155e-05  -1.7441046e-05   1.0548345e-04   1.1420438e-04  -1.8741998e-04  -2.0490179e-04   2.1194646e-05  -6.2033916e-05  -7.1043213e-05  -1.7928160e-05   1.8188231e-05   1.6319611e-04   1.9706920e-04  -3.5157835e-04   3.6374359e-04   2.0851866e-05   3.1722872e-05  -3.0833062e-05   8.7612979e-07  -2.2573172e-04  -2.0960258e-04  -5.1504051e-05   1.5296753e-04  -2.7307880e-05  -1.1182987e-04  -2.8479258e-04   1.1812940e-04   8.8165744e-06   3.5346201e-04   2.0822663e-04   1.4422576e-04   7.3636211e-05   2.6380855e-04   1.6811174e-04   1.6620303e-05  -1.1630158e-05   0.0000000e+00  -4.0719596e-04   7.1832409e-06  -1.3009567e-04   1.2263004e-05   2.5743647e-05  -1.1280999e-04  -1.6913620e-05  -2.0438392e-04  -1.5071946e-06   2.8846387e-04  -1.0839357e-05   3.2339706e-04  -1.5343134e-04   3.9985028e-04  -2.6481200e-04  -3.5391009e-04   3.3498024e-06   2.7510513e-04   3.9987987e-04   4.0495692e-04   1.2426741e-04  -1.1781313e-04  -5.6484222e-05   1.0711956e-04   1.6780710e-04   1.1567035e-04   1.3385912e-04   3.3472991e-04   3.7969314e-04  -1.0892350e-04   1.0919855e-04   3.9419290e-04   1.6753635e-05   8.2237360e-05   4.2160375e-04   2.3066641e-04  -6.3590996e-05   0.0000000e+00  -1.3168461e-04   1.4776198e-04   2.3292510e-04   2.2528902e-04   1.8929588e-04  -5.6447795e-05  -1.7663604e-05   2.6958269e-04
  -3.7236514e-05  -4.9227595e-05   9.0758446e-05  -8.4922875e-05   1.9693621e-05  -3.3921058e-06   2.3659033e-04   1.9320777e-04   9.9040026e-05   1.4212837e-05  -3.4388592e-05  -1.4613369e-04   1.9895414e-05   9.4708714e-05   1.8990383e-04   2.5485058e-05  -8.0370065e-05  -1.0507896e-04  -7.9508741e-05  -2.4930521e-04  -1.6116395e-04  -1.0333233e-05  -3.5247696e-05  -3.1336329e-05   4.4389904e-05  -4.7225836e-05  -8.9783226e-05  -2.0934556e-05  -5.6028518e-05   0.0000000e+00   5.0517038e-04  -1.3336322e-04  -1.7423354e-04  -9.3416785e-05  -2.7652458e-05   2.5843903e-04   2.3846938e-04   4.5094538e-05   3.4833913e-04   3.1246167e-04  -1.5555884e-04   9.5623976e-05  -3.6109477e-04  -6.7859519e-04  -4.9351621e-04   1.0256235e-04  -2.6309862e-04  -1.3448032e-04  -1.6090685e-04  -8.5660358e-05  -1.8671839e-04  -2.7286612e-04  -2.7552889e-04  -1.6199574e-04  -2.3367185e-04   5.0991556e-05  -5.0163224e-04   2.0175631e-05  -4.4151376e-05  -1.9385118e-04  -3.8693583e-04  -1.6276953e-04  -8.3103199e-06  -1.9771152e-04  -2.4231389e-04  -5.5694684e-05   1.5416363e-04   0.0000000e+00  -1.1121804e-03  -1.2379759e-04  -1.4552620e-04  -1.6076913e-05  -8.5276471e-05  -3.8008097e-04  -5.0314947e-04   5.5106441e-05   2.1023887e-05  -5.7884548e-04   2.3053144e-03   4.8557361e-04   4.6835712e-03   3.8518391e-03   3.2377110e-04   5.9584354e-04   2.3050508e-04   7.9207338e-04   1.0052330e-03   4.4790390e-04  -1.7587565e-05  -1.7235804e-04   3.3574187e-04   8.5170437e-04   6.7559870e-04   1.1145764e-04   1.7474900e-03  -3.9019988e-04  -7.9903773e-04   4.3520039e-03   2.5697335e-03   2.7651545e-03   2.2484619e-03   2.9454928e-03   1.7966690e-03   8.0329544e-04   5.5699064e-04   0.0000000e+00   8.0817369e-04   7.9410339e-04   1.7137036e-04   4.6083071e-04   6.8428997e-04   2.9149273e-04  -3.4936115e-04  -1.5813481e-04  -3.6682572e-05  -6.5819973e-05  -8.8320453e-05  -7.4541386e-05  -4.8255067e-05  -7.0012428e-05  -2.0905584e-04  -1.0988866e-04  -9.3784515e-05  -3.0169224e-05  -4.8766998e-05  -8.7365132e-05  -2.1874369e-04  -1.0118598e-04  -1.1831246e-04  -3.3307350e-05   3.5743516e-05   4.4185419e-05   9.7952713e-06   7.5853000e-06  -3.7234633e-06  -8.6157123e-05  -4.2164762e-05  -8.4798203e-05  -9.1510422e-05   2.4039971e-06   3.3376096e-06  -9.4308825e-06   3.0286566e-05   0.0000000e+00  -4.4997532e-04   4.7477503e-05   6.7948713e-05  -2.6117290e-05  -6.2604477e-05  -1.3597375e-04  -2.8339738e-04  -7.8322207e-05  -1.4456806e-04  -6.4496409e-05   1.5110757e-04  -1.5161109e-04   1.3439496e-04   7.9265747e-05   4.0860213e-04  -1.8950344e-04   1.1246043e-04  -6.2287765e-06  -8.9190284e-05  -1.0581915e-04   4.0307376e-04   2.0309727e-04   2.3516302e-04  -1.0137381e-04  -7.1473762e-05  -1.1459006e-04   9.0227968e-05  -1.7312301e-04  -1.1997401e-04   3.1215907e-04   1.3455587e-04   1.1322118e-04   1.4085016e-04   2.5425194e-04   9.8370962e-05   8.0848977e-05  -1.1953779e-04   0.0000000e+00   6.6529183e-04   1.2553318e-04   1.6565336e-04  -6.6911425e-05  -2.3374228e-05   2.8880286e-04   2.6369506e-04   1.5518574e-04  -2.4600989e-05   1.3408679e-05   3.3384624e-06  -1.1524497e-05  -1.4936975e-05  -1.3109388e-05   3.8418361e-05  -8.7178348e-05   4.3250751e-05  -5.5671816e-06  -8.3329144e-06  -9.8873048e-06   7.8835386e-05   1.1516197e-04   8.1373972e-05  -4.9393864e-05  -2.0547769e-06  -2.1444866e-05  -4.0521854e-05  -9.0448528e-05  -4.1683975e-05   1.1224233e-05   2.5640851e-05   2.7789772e-05   3.4752888e-05   1.5644665e-05   1.4469187e-05  -5.9253669e-06  -3.5551658e-05   0.0000000e+00   1.2831324e-04  -2.7935134e-05  -9.7640284e-06  -2.3422204e-06   1.9821367e-05   2.0250558e-05   1.0650689e-04   6.4760772e-05   1.9918996e-05   1.2106484e-04   1.9449654e-04  -3.5340314e-05   1.8461281e-04   6.1798424e-05  -8.5832134e-05   3.2317844e-05   3.2276327e-05   2.0056043e-04   1.0229468e-04  -2.2263644e-05   8.1954448e-04   6.2092828e-05  -1.3428179e-04   5.1956637e-05  -1.5468758e-04  -3.3210175e-04  -9.2208141e-04  -4.2276020e-04  -1.9367838e-04   3.5397147e-04   2.1403925e-04   4.8984120e-04   4.2803100e-04   2.0225317e-04   1.1951546e-04   1.2559340e-04   3.8079466e-05   0.0000000e+00  -3.2088884e-05  -3.3726739e-04  -7.2520246e-04  -6.6688245e-05   2.4207884e-04  -2.3772162e-04  -2.0378749e-04  -2.5820906e-04  -4.4130209e-05  -5.4066404e-06   5.0120434e-05  -8.7278148e-05   6.2853254e-05  -1.5428178e-05  -2.5709981e-04  -1.1560240e-03  -1.8877699e-04  -1.8842429e-05  -7.8335666e-05  -1.2459786e-04  -2.7910895e-04  -2.9065207e-04  -2.4597466e-04  -3.0580002e-04  -8.4607795e-05  -1.1563959e-04  -8.0378995e-05  -1.5576659e-04  -5.2301254e-05   1.8940045e-05  -1.6947377e-05  -7.7658093e-05   2.7485056e-05  -4.9233069e-05  -9.4597466e-05  -2.6617024e-05  -7.7096895e-05   0.0000000e+00   1.4120131e-04  -2.2713472e-05  -7.3978596e-05  -8.6823013e-05  -1.2421529e-05  -7.6605453e-06  -2.6632626e-04  -4.8636099e-04   1.1511916e-04   1.1887146e-04   7.7571184e-05   1.2679910e-04   8.2509636e-05   1.0234991e-05  -1.6832784e-04  -2.6174097e-04  -4.3204419e-05   9.0865530e-05   1.6011998e-04   2.7699257e-05   3.3463944e-04  -9.3067641e-05  -1.9115327e-04  -4.3227446e-06   1.1339998e-04   6.0486980e-05  -1.2030663e-06  -2.3354571e-04   3.2488480e-05   8.9259303e-05   9.0455823e-05   9.3551156e-05   7.8049640e-05   1.6932948e-04   2.0273682e-04   1.2861009e-04   1.3637025e-04   0.0000000e+00  -2.5697477e-04   3.2461393e-05   1.6188620e-05   1.2443975e-04   1.2031860e-04  -2.0044786e-04  -2.1687528e-04   1.6910868e-05  -6.5216786e-05  -8.1256505e-05  -6.3450500e-06   2.4674313e-05   1.9771336e-04   2.5204297e-04  -4.1701628e-04   4.2560649e-04   1.8012382e-05   5.0242348e-05  -2.0266726e-05   1.5660632e-05  -2.7190296e-04  -2.4231369e-04  -6.1945839e-05   1.7964657e-04  -2.7483349e-05  -1.1323660e-04  -2.9746374e-04   1.4657906e-04   1.7183333e-05   3.8225595e-04   2.4310620e-04   1.6648656e-04   6.1234567e-05   3.2603535e-04   2.2410305e-04   3.7273600e-05  -9.1036868e-06   0.0000000e+00  -4.8347658e-04   2.3911744e-05  -1.1882313e-04   3.6741065e-05   3.1042572e-05  -1.4914917e-04  -5.8511564e-05  -2.4565629e-04   1.7342560e-05   3.0358969e-04  -1.2055460e-05   3.4550007e-04  -1.4270428e-04   4.1136947e-04  -2.9301111e-04  -3.9004778e-04   5.4672661e-06   3.0279492e-04   4.4347102e-04   4.5485410e-04   1.3362603e-04  -1.2122396e-04  -5.4751678e-05   1.1552932e-04   1.9354522e-04   1.3512702e-04   1.4430845e-04   3.7750759e-04   4.3044664e-04  -7.6062017e-05   1.5683996e-04   4.2847103e-04   6.3388972e-05   1.3047905e-04   4.6974607e-04   2.5156613e-04  -5.3171380e-05   0.0000000e+00  -1.3982729e-04   1.7134822e-04   2.5384054e-04   2.5017119e-04   2.0884911e-04  -5.9741876e-05  -1.4057849e-05   2.9819402e-04
  -4.2794766e-05  -5.5353073e-05   9.4192883e-05  -9.8605491e-05   1.7579956e-05  -8.8879871e-06   2.2788502e-04   2.0545235e-04   9.8034657e-05   1.5362533e-05  -3.4301709e-05  -1.6295740e-04   2.0751732e-05   9.2311381e-05   1.9101228e-04   3.0870399e-05  -8.4190737e-05  -1.0868227e-04  -9.2751018e-05  -2.8094290e-04  -1.8155073e-04  -1.4850369e-05  -3.8823751e-05  -3.4174673e-05   4.3649548e-05  -4.7034775e-05  -9.1955684e-05  -2.1718573e-05  -5.4176205e-05   0.0000000e+00   4.7787979e-04  -1.4747683e-04  -1.9104593e-04  -9.7340565e-05  -3.1222214e-05   2.6391688e-04   2.2241549e-04   5.4038350e-05   3.6052562e-04   3.0151952e-04  -1.1817455e-04   9.3982143e-05  -2.9922185e-04  -6.3714416e-04  -4.2747594e-04   1.2763804e-04  -2.6263746e-04  -1.2488738e-04  -1.6057600e-04  -8.2346166e-05  -1.4347055e-04  -2.2766762e-04  -2.5069557e-04  -1.7036419e-04  -2.2948377e-04   6.8164888e-05  -4.2809143e-04   2.8106125e-05  -7.5554554e-05  -1.1031694e-04  -3.3973585e-04  -1.1665507e-04   4.6779944e-05  -1.1560760e-04  -2.1709624e-04  -3.0212158e-05   1.7603057e-04   0.0000000e+00  -1.1018018e-03  -7.8866548e-05  -1.0217585e-04   2.4703102e-06  -8.0946096e-05  -3.6280383e-04  -5.1254537e-04   5.9928369e-05   1.1652170e-04  -5.0973911e-04   2.3220948e-03   5.3886254e-04   4.7100180e-03   3.9558349e-03   3.9753444e-04   6.2253233e-04   2.3020147e-04   8.2728255e-04   1.0630766e-03   4.9615389e-04   2.1342811e-05  -1.8098779e-04   3.5124984e-04   8.8440526e-04   6.8635942e-04   1.1552961e-04   1.8022883e-03  -3.7991435e-04  -7.9217865e-04   4.2256204e-03   2.5782071e-03   2.8766956e-03   2.2014555e-03   2.9682325e-03   1.8967926e-03   8.6916865e-04   5.4576169e-04   0.0000000e+00   8.1783710e-04   8.1476701e-04   2.0178168e-04   4.9516176e-04   7.0392772e-04   3.0404041e-04  -3.5798144e-04  -1.2863802e-04  -3.2011322e-05  -6.9920039e-05  -9.8249644e-05  -8.0335217e-05  -5.4603083e-05  -7.3845554e-05  -2.1463144e-04  -1.0914836e-04  -1.0331145e-04  -3.0785202e-05  -4.9334358e-05  -8.8538280e-05  -2.2421245e-04  -1.0791152e-04  -1.3870672e-04  -3.6779411e-05   4.1532494e-05   5.9439405e-05   2.3543923e-05   2.3298753e-05   2.7058749e-06  -9.6018266e-05  -4.5971118e-05  -9.0703563e-05  -9.8273034e-05   9.8472774e-06   1.2852061e-05  -1.2502592e-06   4.0533949e-05   0.0000000e+00  -4.9160571e-04   5.9594611e-05   7.9575227e-05  -1.7332661e-05  -6.3829152e-05  -1.5656791e-04  -3.0616402e-04  -8.0840975e-05  -1.5841418e-04  -7.2026753e-05   1.7657936e-04  -1.4261276e-04   1.8419100e-04   1.2099915e-04   4.2437848e-04  -1.3439548e-04   1.3481525e-04   1.2142965e-05  -7.3420928e-05  -8.7483822e-05   4.3548855e-04   2.2977803e-04   2.4752604e-04  -8.3426148e-05  -5.5953340e-05  -1.0797424e-04   1.1766166e-04  -1.6820744e-04  -1.1829733e-04   3.5230374e-04   1.6535488e-04   1.4486067e-04   1.4804271e-04   2.9386031e-04   1.2523579e-04   9.4366005e-05  -1.2355240e-04   0.0000000e+00   6.4138833e-04   1.3254170e-04   1.6468474e-04  -6.2949583e-05  -2.2874999e-05   2.9211570e-04   2.7756106e-04   1.6949707e-04  -1.4567469e-05   1.9020690e-05   7.6953882e-06   9.3732215e-07  -1.2608046e-05  -1.2805969e-05   2.7504989e-05  -5.8887277e-05   4.5152555e-05  -1.1867161e-06   3.4169458e-06  -4.7458145e-06   7.9389554e-05   1.1816600e-04   7.3570334e-05  -3.8196053e-05   9.8625479e-06  -7.9411626e-06  -2.5736304e-05  -8.8845824e-05  -3.6198751e-05   1.2829651e-05   3.2464159e-05   3.2632160e-05   4.0461774e-05   2.8039371e-05   3.1590448e-05   4.8046168e-06  -2.1157136e-05   0.0000000e+00   9.0950037e-05  -1.4165560e-05   1.2160061e-05   8.9421260e-06   2.6114564e-05   5.0293029e-06   1.0301045e-04   9.4396411e-05  -2.3917077e-05   1.1832597e-04   2.2206812e-04  -8.0516830e-05   2.4395139e-04   1.2076738e-04  -1.5439919e-04   4.4788719e-05   4.0794050e-05   2.3569842e-04   1.1941811e-04  -2.7538772e-05   8.7085441e-04   7.6937470e-05  -1.3976914e-04   6.4131213e-05  -1.6094093e-04  -3.6091530e-04  -1.0127636e-03  -4.6699759e-04  -2.1429224e-04   4.2062378e-04   2.7487719e-04   5.5253079e-04   4.7124814e-04   2.8337439e-04   1.6360806e-04   1.2380385e-04   3.2948185e-05   0.0000000e+00  -3.4102345e-05  -3.2804155e-04  -7.5605368e-04  -7.5431764e-05   2.7509414e-04  -2.6203338e-04  -2.3042908e-04  -2.9258261e-04  -2.9257351e-05  -1.0555965e-06   1.1835782e-05  -8.7205749e-05   4.6305568e-05  -4.6904392e-05  -3.5386765e-04  -1.2047350e-03  -2.2556806e-04  -2.7997935e-05  -9.1649912e-05  -1.2183829e-04  -3.9216188e-04  -3.5073683e-04  -3.2201056e-04  -3.2602217e-04  -8.2627421e-05  -1.1642695e-04  -1.3298006e-04  -1.6092141e-04  -6.1834522e-05   7.3722659e-06  -4.2797075e-05  -7.1116038e-05   3.6393612e-07  -7.0795911e-05  -1.1346648e-04  -3.1207851e-05  -7.1141954e-05   0.0000000e+00  -5.8700740e-05  -5.2285280e-05  -1.2367590e-04  -8.8493832e-05  -2.4401106e-05  -9.2016601e-05  -3.3833812e-04  -4.7601931e-04   1.1696424e-04   1.2616208e-04   8.1761972e-05   1.3669942e-04   8.7584102e-05   1.6002487e-05  -1.8082403e-04  -2.9324621e-04  -4.5642825e-05   9.2145768e-05   1.6956896e-04   4.1015278e-05   3.5438258e-04  -9.9991413e-05  -2.0505892e-04  -5.2655560e-06   1.2690137e-04   7.7949911e-05   2.1001614e-05  -2.2113750e-04   6.0599608e-05   1.0535665e-04   1.1070301e-04   1.0107532e-04   8.6379151e-05   1.8988989e-04   2.3032339e-04   1.3663786e-04   1.4227589e-04   0.0000000e+00  -2.4936394e-04   5.3754977e-05   5.1066999e-05   1.4101936e-04   1.2213004e-04  -2.1177802e-04  -2.2760601e-04   9.6842850e-06  -6.3949089e-05  -8.7551731e-05   1.0911774e-06   3.4510613e-05   2.2077767e-04   2.9954102e-04  -4.7561593e-04   4.7888276e-04   1.5399674e-05   6.9097850e-05  -7.6848599e-06   3.6887967e-05  -3.1299354e-04  -2.6996750e-04  -7.0042560e-05   2.0380138e-04  -2.5578634e-05  -1.1141767e-04  -3.0433265e-04   1.8014152e-04   2.9432498e-05   3.8862823e-04   2.6698628e-04   1.7884968e-04   3.9417540e-05   3.8041816e-04   2.7995581e-04   5.8155459e-05  -7.6192836e-06   0.0000000e+00  -5.5022978e-04   4.2339308e-05  -9.8385154e-05   6.4742252e-05   3.4844721e-05  -1.8257673e-04  -9.9799478e-05  -2.8421549e-04   3.6189145e-05   3.1208457e-04  -6.6307536e-06   3.5927211e-04  -1.1635763e-04   4.3397265e-04  -3.1523162e-04  -4.2003550e-04   7.0134362e-06   3.2590999e-04   4.8443509e-04   4.9922661e-04   1.4162360e-04  -1.2392923e-04  -5.2768514e-05   1.2505177e-04   2.2079193e-04   1.5309776e-04   1.6275003e-04   4.1477522e-04   4.7688660e-04  -3.0440671e-05   2.1461859e-04   4.6025396e-04   1.1070451e-04   1.8793611e-04   5.1605454e-04   2.7029299e-04  -3.8876110e-05   0.0000000e+00  -1.4465900e-04   1.9670800e-04   2.7139432e-04   2.7409259e-04   2.2658633e-04  -6.1546215e-05  -1.0882050e-05   3.2511672e-04
  -4.9343857e-05  -6.1246133e-05   9.5556380e-05  -1.1234186e-04   1.4185157e-05  -1.4652556e-05   2.1496059e-04   2.1169589e-04   9.5146107e-05   1.5897393e-05  -3.4187045e-05  -1.7883709e-04   2.2467568e-05   8.9014461e-05   1.8959536e-04   3.4747145e-05  -8.7034180e-05  -1.1100765e-04  -1.0507394e-04  -3.1062470e-04  -2.0055759e-04  -1.9557445e-05  -4.1939689e-05  -3.7409607e-05   4.1939010e-05  -4.6365898e-05  -9.2771829e-05  -2.3088624e-05  -5.2367304e-05   0.0000000e+00   4.4558982e-04  -1.5969543e-04  -2.0433986e-04  -1.0012523e-04  -3.4733053e-05   2.6569604e-04   2.0260714e-04   6.0490736e-05   3.6723396e-04   2.8466898e-04  -6.7748699e-05   9.4326297e-05  -2.1253542e-04  -5.6303578e-04  -3.3268897e-04   1.5341081e-04  -2.5446558e-04  -1.0883637e-04  -1.5048510e-04  -7.2838140e-05  -8.0647037e-05  -1.6544819e-04  -2.1435877e-04  -1.7265529e-04  -2.1597756e-04   8.9783306e-05  -3.2192666e-04   3.8306691e-05  -1.0627314e-04  -3.0787818e-06  -2.7054742e-04  -5.6688313e-05   1.1655651e-04  -1.4463352e-05  -1.7930957e-04   2.1753322e-06   1.9885983e-04   0.0000000e+00  -1.0585468e-03  -2.0816431e-05  -4.4761069e-05   2.4444628e-05  -7.1914776e-05  -3.3036581e-04  -5.0844346e-04   6.4077869e-05   2.1863305e-04  -4.2068494e-04   2.2882956e-03   5.7773927e-04   4.6188704e-03   3.9584201e-03   4.6028470e-04   6.3671381e-04   2.2522833e-04   8.4762409e-04   1.1020159e-03   5.4037751e-04   5.8314704e-05  -1.8508840e-04   3.6237350e-04   8.9740699e-04   6.8016036e-04   1.1625325e-04   1.8160093e-03  -3.5998128e-04  -7.7110934e-04   4.0084107e-03   2.5279072e-03   2.9336041e-03   2.1203592e-03   2.9315474e-03   1.9589217e-03   9.1977695e-04   5.2331489e-04   0.0000000e+00   8.0763149e-04   8.2054965e-04   2.2760979e-04   5.1666827e-04   7.0853308e-04   3.0847992e-04  -3.6256480e-04  -1.0248631e-04  -2.6235408e-05  -7.2820244e-05  -1.0632385e-04  -8.5435773e-05  -5.8316160e-05  -7.4416586e-05  -2.1464713e-04  -1.0472460e-04  -1.1133780e-04  -3.0771409e-05  -4.8252058e-05  -8.6680449e-05  -2.2443284e-04  -1.1321497e-04  -1.5808648e-04  -3.9276341e-05   4.7211102e-05   7.5667197e-05   3.9502221e-05   4.2042456e-05   1.1001963e-05  -1.0379145e-04  -4.8048825e-05  -9.4389081e-05  -1.0387394e-04   1.7612590e-05   2.2536144e-05   7.2018602e-06   5.1095028e-05   0.0000000e+00  -5.2714941e-04   7.1743178e-05   9.0162043e-05  -6.6919279e-06  -6.3269381e-05  -1.7550293e-04  -3.2368727e-04  -8.1858501e-05  -1.6899782e-04  -7.9050694e-05   1.9949928e-04  -1.2812608e-04   2.3354301e-04   1.6277597e-04   4.2610754e-04  -6.1076369e-05   1.5465538e-04   3.2767887e-05  -5.3696025e-05  -6.7094006e-05   4.5702597e-04   2.5185246e-04   2.5094839e-04  -5.9281116e-05  -3.6607155e-05  -9.6438818e-05   1.4454252e-04  -1.6024190e-04  -1.1411182e-04   3.8411018e-04   1.9367994e-04   1.7436704e-04   1.5012658e-04   3.2845180e-04   1.5102000e-04   1.0747850e-04  -1.2192355e-04   0.0000000e+00   5.8179195e-04   1.3699205e-04   1.5965702e-04  -5.6480982e-05  -2.2491472e-05   2.8391941e-04   2.8208922e-04   1.8148401e-04  -3.3168619e-06   2.5256629e-05   1.3630319e-05   1.5078976e-05  -8.1369653e-06  -1.0053142e-05   1.5234785e-05  -3.0116254e-05   4.6212212e-05   4.5953469e-06   1.7333697e-05   2.6487154e-06   8.0462497e-05   1.1968816e-04   6.4214329e-05  -2.4716302e-05   2.3399787e-05   7.4983629e-06  -6.9592489e-06  -8.3253008e-05  -2.8203990e-05   1.6351339e-05   4.0934229e-05   3.8052275e-05   4.6978084e-05   4.2928298e-05   5.1473518e-05   1.6793489e-05  -4.8026337e-06   0.0000000e+00   5.0893878e-05   3.2339344e-06   3.8855973e-05   2.1912356e-05   3.3039320e-05  -1.1201749e-05   9.6116252e-05   1.2389316e-04  -7.1989823e-05   1.1148013e-04   2.4227872e-04  -1.3111182e-04   2.9555015e-04   1.7846590e-04  -2.1288234e-04   5.3412068e-05   4.7553913e-05   2.6541331e-04   1.3797308e-04  -3.6090729e-05   9.0115492e-04   9.7297607e-05  -1.3718462e-04   7.1813627e-05  -1.5759367e-04  -3.7619938e-04  -1.0723694e-03  -5.1025172e-04  -2.3143802e-04   4.7210019e-04   3.3079054e-04   6.0094862e-04   5.0053065e-04   3.6071154e-04   2.0446401e-04   1.2011082e-04   2.8444047e-05   0.0000000e+00  -2.8843924e-05  -3.0596283e-04  -7.6484115e-04  -8.3437747e-05   2.9990856e-04  -2.7614944e-04  -2.5333725e-04  -3.1420225e-04  -9.0506595e-06   5.1588025e-06  -3.8508904e-05  -7.9145556e-05   2.3418346e-05  -8.5975666e-05  -4.8157051e-04  -1.2303298e-03  -2.6913774e-04  -3.8446383e-05  -1.0473533e-04  -1.1464385e-04  -5.1420523e-04  -4.2296626e-04  -4.1767488e-04  -3.3982228e-04  -7.6128151e-05  -1.1289252e-04  -1.9339429e-04  -1.6217674e-04  -7.1421546e-05  -6.9215433e-06  -7.2869815e-05  -5.9902733e-05  -3.4599796e-05  -9.3691432e-05  -1.3091367e-04  -3.4624892e-05  -5.7742258e-05   0.0000000e+00  -3.3134274e-04  -8.5922335e-05  -1.7829029e-04  -8.5311196e-05  -3.7804300e-05  -2.0431035e-04  -4.3150777e-04  -4.4629768e-04   1.1454685e-04   1.2984863e-04   8.2867025e-05   1.4216251e-04   9.0213912e-05   2.0154344e-05  -1.9237890e-04  -3.2565048e-04  -4.9389601e-05   8.8768487e-05   1.7428472e-04   5.1571179e-05   3.6408206e-04  -1.0798522e-04  -2.1793486e-04  -8.3673694e-06   1.3738252e-04   9.5427154e-05   4.3739316e-05  -2.0538002e-04   8.8913000e-05   1.1816215e-04   1.2901538e-04   1.0389569e-04   9.2572157e-05   2.0442189e-04   2.5082202e-04   1.3979253e-04   1.4363220e-04   0.0000000e+00  -2.3708169e-04   7.2745241e-05   8.4637496e-05   1.5423182e-04   1.1938534e-04  -2.2173037e-04  -2.3745303e-04  -6.2384061e-07  -5.7600226e-05  -8.8724065e-05   1.8868243e-06   4.7943737e-05   2.2801191e-04   3.3386386e-04  -5.2491042e-04   5.1963292e-04   1.3152160e-05   8.6748204e-05   5.9832270e-06   6.4588770e-05  -3.4698524e-04  -2.9131903e-04  -7.5623212e-05   2.2381049e-04  -2.1633318e-05  -1.0668734e-04  -3.0661979e-04   2.1844200e-04   4.5891116e-05   3.6934535e-04   2.7626220e-04   1.7819407e-04   8.3981376e-06   4.2234419e-04   3.3249842e-04   7.7697978e-05  -7.6383740e-06   0.0000000e+00  -6.0459415e-04   6.1441936e-05  -6.8974073e-05   9.5015404e-05   3.6575400e-05  -2.1112178e-04  -1.3766077e-04  -3.1840587e-04   5.3705640e-05   3.1442696e-04   5.3712150e-06   3.6437379e-04  -7.6088738e-05   4.6821858e-04  -3.3107164e-04  -4.4337215e-04   7.6555977e-06   3.4349237e-04   5.2111638e-04   5.3609968e-04   1.4822999e-04  -1.2679272e-04  -5.1475751e-05   1.3540451e-04   2.4830860e-04   1.6819909e-04   1.8848920e-04   4.4433199e-04   5.1733697e-04   2.5004556e-05   2.7938784e-04   4.8873170e-04   1.5537787e-04   2.5107307e-04   5.5860360e-04   2.8624636e-04  -2.1605606e-05   0.0000000e+00  -1.4595575e-04   2.2252120e-04   2.8444334e-04   2.9614691e-04   2.4191292e-04  -6.1902122e-05  -8.3127507e-06   3.5035344e-04
  -5.7001471e-05  -6.6865616e-05   9.4774189e-05  -1.2615069e-04   9.3781951e-06  -2.0597250e-05   1.9935157e-04   2.1151593e-04   9.0703746e-05   1.5584913e-05  -3.4374323e-05  -1.9367255e-04   2.4985930e-05   8.5361218e-05   1.8633173e-04   3.6602300e-05  -8.9070847e-05  -1.1230250e-04  -1.1623636e-04  -3.3785587e-04  -2.1787620e-04  -2.4369345e-05  -4.4638122e-05  -4.1157008e-05   3.9349946e-05  -4.5562572e-05  -9.2623032e-05  -2.5305852e-05  -5.1153198e-05   0.0000000e+00   4.1298790e-04  -1.6991898e-04  -2.1399064e-04  -1.0203300e-04  -3.8223838e-05   2.6463467e-04   1.8110186e-04   6.3908174e-05   3.6921654e-04   2.6354443e-04  -5.2408876e-06   9.7852739e-05  -1.0187121e-04  -4.5649256e-04  -2.1088265e-04   1.8023307e-04  -2.3877466e-04  -8.6201061e-05  -1.2959798e-04  -5.6126440e-05   1.5600914e-06  -8.7505134e-05  -1.6762311e-04  -1.6790615e-04  -1.9323547e-04   1.1571605e-04  -1.8628479e-04   5.1015050e-05  -1.3448229e-04   1.2619495e-04  -1.8046922e-04   1.6641157e-05   2.0033051e-04   1.0336114e-04  -1.2939875e-04   4.0968970e-05   2.2247537e-04   0.0000000e+00  -9.8430188e-04   4.8809324e-05   2.4895205e-05   4.9356655e-05  -5.7997867e-05  -2.8420701e-04  -4.9138338e-04   6.7750836e-05   3.1968224e-04  -3.1852653e-04   2.2130466e-03   6.0155086e-04   4.4322268e-03   3.8732716e-03   5.0759119e-04   6.3976517e-04   2.1688196e-04   8.5462100e-04   1.1232280e-03   5.7974556e-04   9.0035416e-05  -1.8464986e-04   3.7026093e-04   8.9333574e-04   6.5990816e-04   1.1398663e-04   1.7930171e-03  -3.3202032e-04  -7.3866695e-04   3.7329003e-03   2.4322679e-03   2.9413491e-03   2.0189437e-03   2.8492637e-03   1.9861311e-03   9.5471542e-04   4.9269411e-04   0.0000000e+00   7.8058606e-04   8.1303682e-04   2.4784265e-04   5.2604422e-04   6.9970880e-04   3.0540142e-04  -3.6451336e-04  -8.2635398e-05  -1.9564211e-05  -7.4389136e-05  -1.1243465e-04  -8.9545709e-05  -5.9105021e-05  -7.1618514e-05  -2.0959982e-04  -9.6551608e-05  -1.1774810e-04  -3.0186552e-05  -4.5563987e-05  -8.1675399e-05  -2.1982057e-04  -1.1715276e-04  -1.7603505e-04  -4.0626735e-05   5.2674639e-05   9.2326675e-05   5.7182372e-05   6.3552623e-05   2.1215190e-05  -1.0935607e-04  -4.8303912e-05  -9.5692668e-05  -1.0846758e-04   2.5139268e-05   3.1803683e-05   1.5428015e-05   6.1621086e-05   0.0000000e+00  -5.5809687e-04   8.3540565e-05   9.9397981e-05   5.4067242e-06  -6.0995186e-05  -1.9251434e-04  -3.3606479e-04  -8.1345893e-05  -1.7592966e-04  -8.5385834e-05   2.1898949e-04  -1.0862654e-04   2.7973703e-04   2.0233242e-04   4.1390999e-04   2.8631573e-05   1.7104853e-04   5.4863384e-05  -3.0807641e-05  -4.5742067e-05   4.6752530e-04   2.6868800e-04   2.4524566e-04  -2.9848149e-05  -1.4139799e-05  -8.0302194e-05   1.6996890e-04  -1.4959009e-04  -1.0767774e-04   4.0597570e-04   2.1809663e-04   2.0001337e-04   1.4686726e-04   3.5669917e-04   1.7479164e-04   1.1982985e-04  -1.1441057e-04   0.0000000e+00   4.8789424e-04   1.3930373e-04   1.5192407e-04  -4.7615155e-05  -2.2378722e-05   2.6443326e-04   2.7676591e-04   1.9084125e-04   8.5343394e-06   3.1945160e-05   2.1051270e-05   3.0437825e-05  -1.3134062e-06  -4.4075641e-06   2.1053152e-06  -3.2869738e-06   4.6485688e-05   1.1645517e-05   3.2886832e-05   1.2409660e-05   8.2292074e-05   1.1984511e-04   5.4099094e-05  -9.7295057e-06   3.8020814e-05   2.4138116e-05   1.5127893e-05  -7.3466416e-05  -1.7783200e-05   2.2195116e-05   5.1097906e-05   4.4080913e-05   5.4323528e-05   5.9918358e-05   7.3462478e-05   2.9424309e-05   1.2566349e-05   0.0000000e+00   1.1316289e-05   2.3746520e-05   6.9548376e-05   3.6042138e-05   4.0415102e-05  -2.7517356e-05   8.6312118e-05   1.5161095e-04  -1.2083304e-04   1.0075411e-04   2.5308520e-04  -1.8548988e-04   3.3488602e-04   2.2967886e-04  -2.5294540e-04   5.8292664e-05   5.1567997e-05   2.8706023e-04   1.5773754e-04  -4.9330789e-05   9.0900702e-04   1.2393992e-04  -1.2558112e-04   7.3893649e-05  -1.4327265e-04  -3.7498689e-04  -1.0944432e-03  -5.5343023e-04  -2.4478455e-04   5.0291404e-04   3.7734590e-04   6.3101061e-04   5.1347450e-04   4.2837154e-04   2.3836893e-04   1.1578119e-04   2.6624330e-05   0.0000000e+00  -1.5957097e-05  -2.7213404e-04  -7.5087519e-04  -9.0302497e-05   3.1425675e-04  -2.7718047e-04  -2.7139010e-04  -3.1883954e-04   1.6116077e-05   1.3289866e-05  -9.9608317e-05  -6.1675974e-05  -4.9479740e-06  -1.3149135e-04  -6.4084963e-04  -1.2330219e-03  -3.1961838e-04  -4.9666527e-05  -1.1697630e-04  -1.0309969e-04  -6.4049024e-04  -5.0731857e-04  -5.3302094e-04  -3.4683085e-04  -6.4831711e-05  -1.0480533e-04  -2.5860035e-04  -1.5925093e-04  -8.0616506e-05  -2.3295775e-05  -1.0598957e-04  -4.4150017e-05  -7.6671849e-05  -1.1672981e-04  -1.4570219e-04  -3.6265023e-05  -3.6241820e-05   0.0000000e+00  -6.7456574e-04  -1.2163619e-04  -2.3472757e-04  -7.6670100e-05  -5.2067782e-05  -3.4436267e-04  -5.4649206e-04  -3.9778026e-04   1.0793931e-04   1.2969209e-04   8.0798900e-05   1.4291026e-04   9.0337058e-05   2.2143162e-05  -2.0308774e-04  -3.5849630e-04  -5.4669123e-05   8.0608322e-05   1.7396218e-04   5.8170785e-05   3.6292797e-04  -1.1746349e-04  -2.3008840e-04  -1.3918831e-05   1.4416753e-04   1.1217457e-04   6.5509709e-05  -1.8804249e-04   1.1566964e-04   1.2672734e-04   1.4426500e-04   1.0146112e-04   9.6175067e-05   2.1163056e-04   2.6250585e-04   1.3758764e-04   1.4030791e-04   0.0000000e+00  -2.2154419e-04   8.7895124e-05   1.1441373e-04   1.6327008e-04   1.1212020e-04  -2.3069407e-04  -2.4671296e-04  -1.3957135e-05  -4.5812736e-05  -8.3728562e-05  -6.0775353e-06   6.4993043e-05   2.1620464e-04   3.5011621e-04  -5.6308481e-04   5.4473761e-04   1.1327720e-05   1.0162095e-04   1.9691670e-05   9.8342233e-05  -3.7236933e-04  -3.0548829e-04  -7.8735336e-05   2.3821739e-04  -1.5918178e-05  -9.9548229e-05  -3.0601235e-04   2.6071511e-04   6.6714356e-05   3.2319035e-04   2.6829785e-04   1.6213529e-04  -3.0922462e-05   4.4784011e-04   3.7863802e-04   9.4373941e-05  -9.4826351e-06   0.0000000e+00  -6.4435417e-04   8.0106266e-05  -3.1280855e-05   1.2611396e-04   3.5782594e-05  -2.3313784e-04  -1.6919405e-04  -3.4692167e-04   6.8698675e-05   3.1146787e-04   2.3271846e-05   3.6096340e-04  -2.4768593e-05   5.1295061e-04  -3.4059225e-04  -4.5993101e-04   7.0957709e-06   3.5477394e-04   5.5166560e-04   5.6373496e-04   1.5343186e-04  -1.3069522e-04  -5.1797959e-05   1.4600226e-04   2.7445106e-04   1.7899865e-04   2.1968489e-04   4.6417676e-04   5.5026071e-04   8.6484913e-05   3.4703242e-04   5.1303702e-04   1.9437206e-04   3.1546930e-04   5.9514518e-04   2.9880203e-04  -2.4823886e-06   0.0000000e+00  -1.4362492e-04   2.4714753e-04   2.9179225e-04   3.1525125e-04   2.5424231e-04  -6.0926468e-05  -6.4096821e-06   3.7393799e-04
  -6.5807297e-05  -7.2187613e-05   9.1834570e-05  -1.4009642e-04   3.0597276e-06  -2.6695314e-05   1.8266789e-04   2.0485011e-04   8.5073047e-05   1.4198128e-05  -3.5185604e-05  -2.0742442e-04   2.8064174e-05   8.1842600e-05   1.8191422e-04   3.6037054e-05  -9.0503313e-05  -1.1282830e-04  -1.2614761e-04  -3.6226268e-04  -2.3329010e-04  -2.9229020e-05  -4.7011577e-05  -4.5492623e-05   3.5974273e-05  -4.4983691e-05  -9.1970325e-05  -2.8587277e-05  -5.1028011e-05   0.0000000e+00   3.8449930e-04  -1.7821000e-04  -2.2017196e-04  -1.0335863e-04  -4.1746807e-05   2.6166907e-04   1.5994581e-04   6.4005788e-05   3.6749220e-04   2.3989763e-04   6.7836208e-05   1.0557947e-04   3.0828846e-05  -3.1923715e-04  -6.5151726e-05   2.0858507e-04  -2.1605480e-04  -5.7066610e-05  -9.7367091e-05  -3.1418830e-05   1.0192041e-04   4.1532047e-06  -1.1204622e-04  -1.5543362e-04  -1.6176733e-04   1.4552895e-04  -2.6053831e-05   6.6398902e-05  -1.5854356e-04   2.7474795e-04  -7.1477673e-05   1.0241068e-04   2.9672166e-04   2.3480099e-04  -6.8342648e-05   8.5384599e-05   2.4658936e-04   0.0000000e+00  -8.8218264e-04   1.2781568e-04   1.0411456e-04   7.6594572e-05  -3.9246695e-05  -2.2659973e-04  -4.6248134e-04   7.1188930e-05   4.1134551e-04  -2.1100901e-04   2.1074843e-03   6.1113243e-04   4.1775709e-03   3.7204248e-03   5.3599997e-04   6.3361623e-04   2.0664748e-04   8.5055706e-04   1.1289526e-03   6.1367900e-04   1.1368312e-04  -1.7996560e-04   3.7614805e-04   8.7598890e-04   6.2939169e-04   1.0930529e-04   1.7398917e-03  -2.9791774e-04  -6.9800157e-04   3.4320079e-03   2.3069982e-03   2.9082323e-03   1.9107513e-03   2.7370694e-03   1.9837415e-03   9.7456892e-04   4.5722680e-04   0.0000000e+00   7.4063470e-04   7.9424242e-04   2.6187736e-04   5.2493222e-04   6.7977954e-04   2.9593651e-04  -3.6531610e-04  -7.1322157e-05  -1.2192460e-05  -7.4525206e-05  -1.1664039e-04  -9.2329117e-05  -5.6943362e-05  -6.5629666e-05  -2.0020061e-04  -8.4642706e-05  -1.2253247e-04  -2.9131328e-05  -4.1424617e-05  -7.3572199e-05  -2.1102532e-04  -1.1982867e-04  -1.9222977e-04  -4.0726017e-05   5.7835275e-05   1.0884263e-04   7.5995206e-05   8.7420178e-05   3.3320732e-05  -1.1275903e-04  -4.6806293e-05  -9.4611282e-05  -1.1227419e-04   3.1842631e-05   4.0086297e-05   2.2965146e-05   7.1792744e-05   0.0000000e+00  -5.8596937e-04   9.4634195e-05   1.0705883e-04   1.8501637e-05  -5.7185398e-05  -2.0747108e-04  -3.4365175e-04  -7.9305745e-05  -1.7904216e-04  -9.0864160e-05   2.3444917e-04  -8.4810115e-05   3.2029113e-04   2.3758433e-04   3.8894613e-04   1.3208170e-04   1.8332819e-04   7.7596212e-05  -5.6646256e-06  -2.4388371e-05   4.6768902e-04   2.8007559e-04   2.3090316e-04   3.6756106e-06   1.0618989e-05  -6.0110685e-05   1.9326255e-04  -1.3654824e-04  -9.9293004e-05   4.1709187e-04   2.3747703e-04   2.2035573e-04   1.3837621e-04   3.7774073e-04   1.9578906e-04   1.3109520e-04  -1.0114687e-04   0.0000000e+00   3.6370994e-04   1.4009281e-04   1.4309752e-04  -3.6568224e-05  -2.2650526e-05   2.3466869e-04   2.6171843e-04   1.9740058e-04   2.0370406e-05   3.8894607e-05   2.9766790e-05   4.6539801e-05   7.9785757e-06   4.4397900e-06  -1.1511116e-05   1.9326771e-05   4.6054511e-05   1.9746441e-05   4.9437446e-05   2.4543145e-05   8.4906346e-05   1.1868825e-04   4.3960410e-05   5.9095550e-06   5.3133417e-05   4.1174234e-05   3.9628229e-05  -5.9438418e-05  -5.1116622e-06   3.0639275e-05   6.2901435e-05   5.0728175e-05   6.2454954e-05   7.8441912e-05   9.6734717e-05   4.2033678e-05   2.9959710e-05   0.0000000e+00  -2.5051810e-05   4.6635554e-05   1.0314600e-04   5.0726158e-05   4.8031548e-05  -4.3076895e-05   7.4145746e-05   1.7603860e-04  -1.6674631e-04   8.6460078e-05   2.5299676e-04  -2.4189354e-04   3.5831804e-04   2.6933400e-04  -2.6712228e-04   6.0152631e-05   5.1876843e-05   2.9825528e-04   1.7835043e-04  -6.8704248e-05   8.9406369e-04   1.5709853e-04  -1.0465750e-04   6.9703934e-05  -1.1717902e-04  -3.5500402e-04  -1.0741851e-03  -5.9750037e-04  -2.5420844e-04   5.0880385e-04   4.1057281e-04   6.3964147e-04   5.0867369e-04   4.8081478e-04   2.6179460e-04   1.1223671e-04   2.9759336e-05   0.0000000e+00   3.7545202e-06  -2.2843359e-04  -7.1471364e-04  -9.5582063e-05   3.1646547e-04  -2.6281622e-04  -2.8387823e-04  -3.0296427e-04   4.5579241e-05   2.3288430e-05  -1.6934441e-04  -3.3812675e-05  -3.7485293e-05  -1.8178778e-04  -8.3014391e-04  -1.2142583e-03  -3.7670386e-04  -6.1006190e-05  -1.2771551e-04  -8.7470899e-05  -7.6574441e-04  -6.0288117e-04  -6.6679751e-04  -3.4707373e-04  -4.8690917e-05  -9.2141504e-05  -3.2511284e-04  -1.5198580e-04  -8.8943062e-05  -4.0917891e-05  -1.4074639e-04  -2.4239395e-05  -1.2462574e-04  -1.3866511e-04  -1.5668077e-04  -3.5561439e-05  -6.4601822e-06   0.0000000e+00  -1.0819407e-03  -1.5720620e-04  -2.8963886e-04  -6.2233174e-05  -6.6540466e-05  -5.1031016e-04  -6.8263245e-04  -3.3209394e-04   9.7503918e-05   1.2569362e-04   7.5723920e-05   1.3906206e-04   8.8050603e-05   2.1592998e-05  -2.1306520e-04  -3.9119242e-04  -6.1546067e-05   6.7889437e-05   1.6858874e-04   5.9899545e-05   3.5074687e-04  -1.2875022e-04  -2.4187335e-04  -2.2029020e-05   1.4679706e-04   1.2746301e-04   8.4863858e-05  -1.7089323e-04   1.3915919e-04   1.3041094e-04   1.5549381e-04   9.3616898e-05   9.6914477e-05   2.1066369e-04   2.6420466e-04   1.2990256e-04   1.3246384e-04   0.0000000e+00  -2.0427624e-04   9.7926530e-05   1.3813606e-04   1.6757360e-04   1.0065951e-04  -2.3909261e-04  -2.5560628e-04  -3.0058261e-05  -2.8530581e-05  -7.1742096e-05  -2.4348041e-05   8.5455262e-05   1.8357043e-04   3.4480363e-04  -5.8902973e-04   5.5223141e-04   9.9147179e-06   1.1222078e-04   3.2353325e-05   1.3727151e-04  -3.8820944e-04  -3.1197860e-04  -7.9570718e-05   2.4586243e-04  -8.9312240e-06  -9.0670735e-05  -3.0454660e-04   3.0583532e-04   9.1878952e-05   2.5084735e-04   2.4166969e-04   1.2928506e-04  -7.7048130e-05   4.5387241e-04   4.1556599e-04   1.0680235e-04  -1.3311063e-05   0.0000000e+00  -6.6789704e-04   9.7204590e-05   1.3524221e-05   1.5647926e-04   3.2172114e-05  -2.4735794e-04  -1.9186070e-04  -3.6889732e-04   8.0187966e-05   3.0435146e-04   4.5862945e-05   3.4966296e-04   3.3807100e-05   5.6548090e-04  -3.4427097e-04  -4.6992143e-04   5.0869664e-06   3.5924470e-04   5.7420430e-04   5.8078035e-04   1.5722505e-04  -1.3645090e-04  -5.4540224e-05   1.5602652e-04   2.9728071e-04   1.8410798e-04   2.5351830e-04   4.7266576e-04   5.7432588e-04   1.4966600e-04   4.1278513e-04   5.3234652e-04   2.2516400e-04   3.7618178e-04   6.2327777e-04   3.0736210e-04   1.7225947e-05   0.0000000e+00  -1.3770805e-04   2.6873766e-04   2.9227410e-04   3.3021877e-04   2.6305068e-04  -5.8803929e-05  -5.1233365e-06   3.9591553e-04
  -7.5711187e-05  -7.7200077e-05   8.6787502e-05  -1.5425661e-04  -4.8223899e-06  -3.2978977e-05   1.6644605e-04   1.9199216e-04   7.8633234e-05   1.1538226e-05  -3.6908802e-05  -2.2010015e-04   3.1291074e-05   7.8857024e-05   1.7699218e-04   3.2804763e-05  -9.1548091e-05  -1.1283619e-04  -1.3486451e-04  -3.8358766e-04  -2.4667192e-04  -3.4104623e-05  -4.9190599e-05  -5.0440986e-05   3.1898376e-05  -4.4968872e-05  -9.1301109e-05  -3.3086885e-05  -5.2384380e-05   0.0000000e+00   3.6378543e-04  -1.8476970e-04  -2.2331871e-04  -1.0440416e-04  -4.5358860e-05   2.5771527e-04   1.4099651e-04   6.0783003e-05   3.6328036e-04   2.1550176e-04   1.4953712e-04   1.1826150e-04   1.8253472e-04  -1.5441789e-04   1.0010666e-04   2.3898557e-04  -1.8707274e-04  -2.1746690e-05  -5.3784406e-05   1.7713021e-06   2.1817864e-04   1.0686654e-04  -4.9575570e-05  -1.3489647e-04  -1.2249905e-04   1.7849987e-04   1.5248826e-04   8.4523443e-05  -1.7711126e-04   4.3878773e-04   5.3644026e-05   1.9928385e-04   4.0366296e-04   3.7618079e-04   2.3554348e-06   1.3437985e-04   2.7078767e-04   0.0000000e+00  -7.5645462e-04   2.1346919e-04   1.8949320e-04   1.0543596e-04  -1.5968033e-05  -1.6051938e-04  -4.2335730e-04   7.4637043e-05   4.8529427e-04  -1.0626910e-04   1.9836813e-03   6.0863010e-04   3.8843351e-03   3.5233888e-03   5.4333737e-04   6.2052521e-04   1.9603646e-04   8.3826043e-04   1.1222552e-03   6.4191903e-04   1.2714268e-04  -1.7163993e-04   3.8120764e-04   8.4991216e-04   5.9288821e-04   1.0297178e-04   1.6647473e-03  -2.5968599e-04  -6.5239889e-04   3.1358989e-03   2.1683316e-03   2.8444548e-03   1.8080629e-03   2.6109499e-03   1.9586371e-03   9.8079900e-04   4.2026399e-04   0.0000000e+00   6.9222031e-04   7.6647094e-04   2.6956016e-04   5.1567874e-04   6.5156449e-04   2.8162386e-04  -3.6643566e-04  -6.9931227e-05  -4.2906698e-06  -7.3160438e-05  -1.1914769e-04  -9.3447066e-05  -5.2043321e-05  -5.6887359e-05  -1.8725191e-04  -6.9116366e-05  -1.2577298e-04  -2.7740782e-05  -3.6097787e-05  -6.2599761e-05  -1.9887393e-04  -1.2136888e-04  -2.0641368e-04  -3.9545903e-05   6.2620777e-05   1.2463898e-04   9.5288339e-05   1.1309390e-04   4.7205248e-05  -1.1416734e-04  -4.3770874e-05  -9.1301450e-05  -1.1555040e-04   3.7159076e-05   4.6869868e-05   2.9409181e-05   8.1335030e-05   0.0000000e+00  -6.1177446e-04   1.0471592e-04   1.1300542e-04   3.2094118e-05  -5.2119348e-05  -2.2032645e-04  -3.4691171e-04  -7.5786123e-05  -1.7839958e-04  -9.5342798e-05   2.4559673e-04  -5.7559441e-05   3.5320886e-04   2.6682894e-04   3.5332568e-04   2.4591192e-04   1.9114250e-04   1.0014339e-04   2.0748654e-05  -3.8162088e-06   4.5898250e-04   2.8622923e-04   2.0903075e-04   3.9884827e-05   3.6748306e-05  -3.6622658e-05   2.1401405e-04  -1.2134417e-04  -8.9277815e-05   4.1750656e-04   2.5109526e-04   2.3435441e-04   1.2510697e-04   3.9122359e-04   2.1345284e-04   1.4099720e-04  -8.2637107e-05   0.0000000e+00   2.1560356e-04   1.4011552e-04   1.3489729e-04  -2.3662844e-05  -2.3373086e-05   1.9635641e-04   2.3777749e-04   2.0111930e-04   3.1617962e-05   4.5899703e-05   3.9493108e-05   6.2923514e-05   1.9741264e-05   1.6632275e-05  -2.5395997e-05   3.5714266e-05   4.5011548e-05   2.8610197e-05   6.6276900e-05   3.8934504e-05   8.8120391e-05   1.1619041e-04   3.4415459e-05   2.1327501e-05   6.8123147e-05   5.7784545e-05   6.5483975e-05  -4.1293673e-05   9.5464901e-06   4.1785100e-05   7.6177582e-05   5.7981463e-05   7.1252544e-05   9.7782117e-05   1.2034341e-04   5.3952967e-05   4.6414677e-05   0.0000000e+00  -5.6151880e-05   7.0981773e-05   1.3828618e-04   6.5316513e-05   5.5659848e-05  -5.7193150e-05   6.0150658e-05   1.9589846e-04  -2.0607356e-04   6.8950799e-05   2.4121864e-04  -2.9857552e-04   3.6344043e-04   2.9293755e-04  -2.4947250e-04   6.0259733e-05   4.7640068e-05   2.9706427e-04   1.9929548e-04  -9.5580181e-05   8.5706889e-04   1.9638570e-04  -7.4835058e-05   5.9071658e-05  -7.9210569e-05  -3.1486940e-04  -1.0088184e-03  -6.4335985e-04  -2.5976496e-04   4.8718016e-04   4.2734151e-04   6.2508239e-04   4.8586843e-04   5.1329791e-04   2.7169741e-04   1.1092104e-04   4.0154104e-05   0.0000000e+00   2.8271063e-05  -1.7743727e-04  -6.5816810e-04  -9.8830458e-05   3.0558500e-04  -2.3154933e-04  -2.9062715e-04  -2.6408768e-04   7.8406930e-05   3.4995034e-05  -2.4489620e-04   4.8694927e-06  -7.2513954e-05  -2.3481828e-04  -1.0456719e-03  -1.1766390e-03  -4.3962607e-04  -7.1737060e-05  -1.3629970e-04  -6.8187899e-05  -8.8448591e-04  -7.0784545e-04  -8.1647187e-04  -3.4099320e-04  -2.7917643e-05  -7.5119434e-05  -3.8932104e-04  -1.4038005e-04  -9.5929977e-05  -5.8820652e-05  -1.7559156e-04  -7.9209636e-07  -1.7680223e-04  -1.5829382e-04  -1.6289375e-04  -3.2035525e-05   3.1244208e-05   0.0000000e+00  -1.5428003e-03  -1.9037814e-04  -3.3971321e-04  -4.1989672e-05  -8.0514104e-05  -6.9862742e-04  -8.3794822e-04  -2.5185951e-04   8.3864583e-05   1.1810226e-04   6.8028136e-05   1.3113257e-04   8.3610537e-05   1.8324557e-05  -2.2242854e-04  -4.2302508e-04  -6.9921204e-05   5.1181474e-05   1.5847098e-04   5.6192583e-05   3.2805523e-04  -1.4206136e-04  -2.5366495e-04  -3.2606036e-05   1.4507181e-04   1.4063185e-04   1.0049013e-04  -1.5558488e-04   1.5784508e-04   1.2893911e-04   1.6198187e-04   8.0648504e-05   9.4741541e-05   2.0117660e-04   2.5540034e-04   1.1701319e-04   1.2055511e-04   0.0000000e+00  -1.8678529e-04   1.0190566e-04   1.5393898e-04   1.6686889e-04   8.5609299e-05  -2.4735858e-04  -2.6425603e-04  -4.8451766e-05  -6.0050095e-06  -5.2212843e-05  -5.3770475e-05   1.0892160e-04   1.2971584e-04   3.1611555e-04  -6.0234777e-04   5.4150724e-04   8.8575231e-06   1.1725030e-04   4.2912318e-05   1.8008104e-04  -3.9419337e-04  -3.1066102e-04  -7.8379949e-05   2.4598044e-04  -1.3854212e-06  -8.0864879e-05  -3.0446624e-04   3.5237270e-04   1.2116155e-04   1.5448623e-04   1.9621256e-04   7.9382109e-05  -1.2802930e-04   4.3853788e-04   4.4095266e-04   1.1383494e-04  -1.9103984e-05   0.0000000e+00  -6.7415958e-04   1.1166879e-04   6.3844189e-05   1.8453043e-04   2.5635382e-05  -2.5292810e-04  -2.0359676e-04  -3.8395654e-04   8.7435423e-05   2.9439354e-04   7.1547141e-05   3.3149248e-04   9.5239262e-05   6.2185400e-04  -3.4292493e-04  -4.7381734e-04   1.4658387e-06   3.5668092e-04   5.8697001e-04   5.8636671e-04   1.5961478e-04  -1.4470922e-04  -6.0281522e-05   1.6450700e-04   3.1471427e-04   1.8229698e-04   2.8642668e-04   4.6862446e-04   5.8847951e-04   2.1001819e-04   4.7161915e-04   5.4597753e-04   2.4592791e-04   4.2812968e-04   6.4064947e-04   3.1141829e-04   3.6203818e-05   0.0000000e+00  -1.2840081e-04   2.8539725e-04   2.8482691e-04   3.3985792e-04   2.6792047e-04  -5.5772026e-05  -4.2996853e-06   4.1631105e-04
  -8.6563365e-05  -8.1896878e-05   7.9743877e-05  -1.6869035e-04  -1.4261005e-05  -3.9528859e-05   1.5200307e-04   1.7358224e-04   7.1751343e-05   7.4602874e-06  -3.9765800e-05  -2.3173373e-04   3.4128734e-05   7.6673915e-05   1.7211356e-04   2.6839877e-05  -9.2412600e-05  -1.1254530e-04  -1.4257139e-04  -4.0168021e-04  -2.5797369e-04  -3.8987439e-05  -5.1326612e-05  -5.5967231e-05   2.7198510e-05  -4.5804500e-05  -9.1080112e-05  -3.8873333e-05  -5.5472231e-05   0.0000000e+00   3.5330751e-04  -1.8990350e-04  -2.2406580e-04  -1.0544696e-04  -4.9109105e-05   2.5357135e-04   1.2575896e-04   5.4523401e-05   3.5790461e-04   1.9205773e-04   2.3761913e-04   1.3632609e-04   3.4922459e-04   3.3519604e-05   2.7936674e-04   2.7190430e-04  -1.5283467e-04   1.9218929e-05   5.9393498e-07   4.3536274e-05   3.4713522e-04   2.1743331e-04   1.7550519e-05  -1.0633454e-04  -7.6722558e-05   2.1365875e-04   3.4208432e-04   1.0531407e-04  -1.8920779e-04   6.1364496e-04   1.9139836e-04   3.0553501e-04   5.1844117e-04   5.2333534e-04   8.0700607e-05   1.8669074e-04   2.9453375e-04   0.0000000e+00  -6.1240060e-04   3.0264162e-04   2.7709608e-04   1.3505843e-04   1.1267957e-05  -8.9456135e-05  -3.7603249e-04   7.8304189e-05   5.3396013e-04  -1.2233688e-05   1.8536316e-03   5.9715387e-04   3.5809291e-03   3.3062946e-03   5.2889050e-04   6.0287304e-04   1.8645451e-04   8.2081452e-04   1.1067353e-03   6.6453201e-04   1.2916549e-04  -1.6055020e-04   3.8642723e-04   8.1996303e-04   5.5479401e-04   9.5860472e-05   1.5765032e-03  -2.1929143e-04  -6.0508986e-04   2.8698556e-03   2.0315270e-03   2.7611247e-03   1.7211056e-03   2.4858099e-03   1.9184908e-03   9.7556782e-04   3.8493565e-04   0.0000000e+00   6.3990623e-04   7.3217737e-04   2.7115424e-04   5.0103451e-04   6.1814648e-04   2.6427506e-04  -3.6920460e-04  -7.8909177e-05   3.9978274e-06  -7.0270368e-05  -1.2028181e-04  -9.2591712e-05  -4.4809455e-05  -4.6034925e-05  -1.7153811e-04  -5.0230017e-05  -1.2762253e-04  -2.6180051e-05  -2.9947613e-05  -4.9174821e-05  -1.8431019e-04  -1.2190317e-04  -2.1837217e-04  -3.7143129e-05   6.6968515e-05   1.3916638e-04   1.1438133e-04   1.3988933e-04   6.2656911e-05  -1.1382756e-04  -3.9531720e-05  -8.6061033e-05  -1.1856722e-04   4.0589637e-05   5.1721135e-05   3.4439897e-05   9.0025473e-05   0.0000000e+00  -6.3565405e-04   1.1353314e-04   1.1717901e-04   4.5670544e-05  -4.6164250e-05  -2.3107402e-04  -3.4626979e-04  -7.0897950e-05  -1.7428720e-04  -9.8716947e-05   2.5249146e-04  -2.7893399e-05   3.7718466e-04   2.8891713e-04   3.0992654e-04   3.6617941e-04   1.9447200e-04   1.2173345e-04   4.7431269e-05   1.5416058e-05   4.4347857e-04   2.8774871e-04   1.8126979e-04   7.7253285e-05   6.3287558e-05  -1.0767566e-05   2.3211304e-04  -1.0413272e-04  -7.7965370e-05   4.0809608e-04   2.5868592e-04   2.4146615e-04   1.0781920e-04   3.9730613e-04   2.2744740e-04   1.4932279e-04  -5.9722016e-05   0.0000000e+00   5.1761953e-05   1.4020436e-04   1.2899518e-04  -9.3290716e-06  -2.4559757e-05   1.5181472e-04   2.0646903e-04   2.0206716e-04   4.1786598e-05   5.2755923e-05   4.9867355e-05   7.9159208e-05   3.3845566e-05   3.2118053e-05  -3.9485546e-05   4.4233625e-05   4.3449018e-05   3.7892457e-05   8.2664655e-05   5.5342003e-05   9.1552066e-05   1.1224407e-04   2.5919898e-05   3.5686335e-05   8.2390078e-05   7.3175991e-05   9.1545628e-05  -1.9333509e-05   2.5848032e-05   5.5515947e-05   9.0639278e-05   6.5792868e-05   8.0515318e-05   1.1710846e-04   1.4327060e-04   6.4556410e-05   6.1060204e-05   0.0000000e+00  -8.0697895e-05   9.5732373e-05   1.7340571e-04   7.9160845e-05   6.3066320e-05  -6.9381142e-05   4.4795293e-05   2.1023073e-04  -2.3548024e-04   4.8574545e-05   2.1774142e-04  -3.5386137e-04   3.4932437e-04   2.9699789e-04  -1.9609741e-04   6.0259850e-05   3.8207418e-05   2.8218738e-04   2.1991984e-04  -1.3112178e-04   7.9983057e-04   2.4072128e-04  -3.7292498e-05   4.2330432e-05  -3.0019827e-05  -2.5427063e-04  -8.9789344e-04  -6.9165453e-04  -2.6166392e-04   4.3743206e-04   4.2568352e-04   5.8711196e-04   4.4599816e-04   5.2229891e-04   2.6578450e-04   1.1319434e-04   5.9937665e-05   0.0000000e+00   5.4380109e-05  -1.2229637e-04  -5.8425659e-04  -9.9615359e-05   2.8150991e-04  -1.8286241e-04  -2.9207824e-04  -2.0104813e-04   1.1343809e-04   4.8150093e-05  -3.2291833e-04   5.4144142e-05  -1.0809425e-04  -2.8828869e-04  -1.2815930e-03  -1.1237236e-03  -5.0716980e-04  -8.1100035e-05  -1.4212773e-04  -4.5837744e-05  -9.9136087e-04  -8.1958324e-04  -9.7834188e-04  -3.2943956e-04  -3.0024487e-06  -5.4215216e-05  -4.4779507e-04  -1.2460134e-04  -1.0115115e-04  -7.5968880e-05  -2.0894322e-04   2.5349639e-05  -2.3118473e-04  -1.7453711e-04  -1.6366533e-04  -2.5341629e-05   7.5945188e-05   0.0000000e+00  -2.0425747e-03  -2.1903647e-04  -3.8194171e-04  -1.6288655e-05  -9.3267583e-05  -9.0427215e-04  -1.0091624e-03  -1.6060026e-04   6.7877386e-05   1.0740574e-04   5.8316591e-05   1.2000616e-04   7.7406651e-05   1.2370314e-05  -2.3127487e-04  -4.5318369e-04  -7.9531012e-05   3.1372490e-05   1.4421028e-04   4.6895059e-05   2.9603199e-04  -1.5747237e-04  -2.6582733e-04  -4.5349010e-05   1.3907608e-04   1.5111952e-04   1.1132474e-04  -1.4354736e-04   1.7045560e-04   1.2242124e-04   1.6330535e-04   6.3274101e-05   8.9852656e-05   1.8338106e-04   2.3629009e-04   9.9584048e-05   1.0530876e-04   0.0000000e+00  -1.7049165e-04   9.9316063e-05   1.6047568e-04   1.6118699e-04   6.7817709e-05  -2.5589413e-04  -2.7269657e-04  -6.8455905e-05   2.1220322e-05  -2.4904493e-05  -9.4437503e-05   1.3480933e-04   5.5332073e-05   2.6382066e-04  -6.0333390e-04   5.1334447e-04   8.0753695e-06   1.1570460e-04   5.0417395e-05   2.2511609e-04  -3.9064079e-04  -3.0176667e-04  -7.5400421e-05   2.3827235e-04   5.8323570e-06  -7.1037396e-05  -3.0807400e-04   3.9866481e-04   1.5413634e-04   3.7230721e-05   1.3289837e-04   1.3298689e-05  -1.8161928e-04   4.0114472e-04   4.5309965e-04   1.1463264e-04  -2.6677923e-05   0.0000000e+00  -6.6260076e-04   1.2255442e-04   1.1771517e-04   2.0875750e-04   1.6254898e-05  -2.4942826e-04  -2.0289692e-04  -3.9221860e-04   8.9972706e-05   2.8296619e-04   9.8485021e-05   3.0776130e-04   1.5487546e-04   6.7722084e-04  -3.3759777e-04  -4.7228228e-04  -3.8377960e-06   3.4718559e-04   5.8848573e-04   5.8017314e-04   1.6059707e-04  -1.5586854e-04  -6.9288896e-05   1.7042404e-04   3.2469207e-04   1.7257697e-04   3.1441080e-04   4.5144837e-04   5.9199214e-04   2.6319917e-04   5.1867696e-04   5.5346668e-04   2.5564108e-04   4.6653441e-04   6.4516139e-04   3.1060606e-04   5.3170519e-05   0.0000000e+00  -1.1601988e-04   2.9532903e-04   2.6857416e-04   3.4307414e-04   2.6858012e-04  -5.2105882e-05  -3.6840693e-06   4.3511703e-04
  -9.8115608e-05  -8.6272101e-05   7.0873252e-05  -1.8340169e-04  -2.5174559e-05  -4.6453797e-05   1.4031080e-04   1.5059338e-04   6.4759863e-05   1.8919736e-06  -4.3892429e-05  -2.4236443e-04   3.5971031e-05   7.5410821e-05   1.6767599e-04   1.8275434e-05  -9.3273227e-05  -1.1211935e-04  -1.4954142e-04  -4.1648064e-04  -2.6721122e-04  -4.3882559e-05  -5.3571933e-05  -6.1972235e-05   2.1939474e-05  -4.7691411e-05  -9.1701913e-05  -4.5918210e-05  -6.0369289e-05   0.0000000e+00   3.5404417e-04  -1.9396914e-04  -2.2316597e-04  -1.0671398e-04  -5.3028932e-05   2.4983121e-04   1.1524646e-04   4.5772659e-05   3.5270193e-04   1.7110619e-04   3.2965658e-04   1.5981495e-04   5.2604986e-04   2.3901114e-04   4.6624766e-04   3.0770818e-04  -1.1453697e-04   6.5061644e-05   6.4654332e-05   9.3531379e-05   4.8479324e-04   3.3226534e-04   8.6921056e-05  -7.0190451e-05  -2.6042714e-05   2.4983772e-04   5.3497566e-04   1.2852897e-04  -1.9428516e-04   7.9403446e-04   3.3767891e-04   4.1908452e-04   6.3775611e-04   6.7174331e-04   1.6426686e-04   2.4089015e-04   3.1717885e-04   0.0000000e+00  -4.5616665e-04   3.9197517e-04   3.6270952e-04   1.6455600e-04   4.1639466e-05  -1.7177011e-05  -3.2280701e-04   8.2348108e-05   5.5127481e-04   6.3943492e-05   1.7283922e-03   5.8034152e-04   3.2925497e-03   3.0915585e-03   4.9353891e-04   5.8297860e-04   1.7906069e-04   8.0131752e-04   1.0862035e-03   6.8189203e-04   1.1945344e-04  -1.4780936e-04   3.9250755e-04   7.9085018e-04   5.1922158e-04   8.8894900e-05   1.4841538e-03  -1.7852807e-04  -5.5907752e-04   2.6531320e-03   1.9097200e-03   2.6692780e-03   1.6575511e-03   2.3743784e-03   1.8710133e-03   9.6151940e-04   3.5394848e-04   0.0000000e+00   5.8797062e-04   6.9386480e-04   2.6731963e-04   4.8383915e-04   5.8262944e-04   2.4577972e-04  -3.7474693e-04  -9.7773348e-05   1.2554897e-05  -6.5879050e-05  -1.2044979e-04  -8.9534709e-05  -3.5786055e-05  -3.3860410e-05  -1.5375314e-04  -2.8427565e-05  -1.2827816e-04  -2.4636133e-05  -2.3420100e-05  -3.3886794e-05  -1.6833431e-04  -1.2155073e-04  -2.2791671e-04  -3.3664144e-05   7.0818504e-05   1.5193027e-04   1.3259753e-04   1.6700836e-04   7.9364889e-05  -1.1203592e-04  -3.4510199e-05  -7.9305728e-05  -1.2159588e-04   4.1735002e-05   5.4312089e-05   3.7835258e-05   9.7689810e-05   0.0000000e+00  -6.5684108e-04   1.2089309e-04   1.1959985e-04   5.8725486e-05  -3.9753494e-05  -2.3971547e-04  -3.4201517e-04  -6.4837230e-05  -1.6719282e-04  -1.0092471e-04   2.5552271e-04   3.0876683e-06   3.9172473e-04   3.0337456e-04   2.6215471e-04   4.8850225e-04   1.9363057e-04   1.4169815e-04   7.3412231e-05   3.2987240e-05   4.2366819e-04   2.8555776e-04   1.4966446e-04   1.1423295e-04   8.9286167e-05   1.6400505e-05   2.4775690e-04  -8.5012098e-05  -6.5685218e-05   3.9045452e-04   2.6045401e-04   2.4167337e-04   8.7525128e-05   3.9661378e-04   2.3765875e-04   1.5593505e-04  -3.3532955e-05   0.0000000e+00  -1.1848913e-04   1.4119441e-04   1.2687219e-04   5.9138680e-06  -2.6170553e-05   1.0376277e-04   1.6993467e-04   2.0040397e-04   5.0499234e-05   5.9266153e-05   6.0465617e-05   9.4863177e-05   5.0018303e-05   5.0630412e-05  -5.3849933e-05   4.3714857e-05   4.1447605e-05   4.7213507e-05   9.7875428e-05   7.3396881e-05   9.4658515e-05   1.0667827e-04   1.8741422e-05   4.8239813e-05   9.5382663e-05   8.6634188e-05   1.1664521e-04   5.9622503e-06   4.3380002e-05   7.1477737e-05   1.0588266e-04   7.4072796e-05   8.9967149e-05   1.3552581e-04   1.6449038e-04   7.3303048e-05   7.3181799e-05   0.0000000e+00  -9.8145062e-05   1.1976542e-04   2.0683790e-04   9.1644208e-05   7.0026618e-05  -7.9383061e-05   2.8457655e-05   2.1845398e-04  -2.5221861e-04   2.5655643e-05   1.8335682e-04  -4.0624646e-04   3.1664257e-04   2.7940020e-04  -1.0558933e-04   6.2007709e-05   2.3197270e-05   2.5310498e-04   2.3943523e-04  -1.7615894e-04   7.2509805e-04   2.8836428e-04   6.0760115e-06   2.0310168e-05   2.8955723e-05  -1.7405998e-04  -7.4353059e-04  -7.4265081e-04  -2.6022212e-04   3.6104702e-04   4.0502202e-04   5.2714317e-04   3.9115578e-04   5.0585874e-04   2.4274021e-04   1.2020478e-04   9.0839603e-05   0.0000000e+00   7.7849380e-05  -6.6549440e-05  -4.9706355e-04  -9.7542802e-05   2.4500224e-04  -1.1734212e-04  -2.8932091e-04  -1.1425857e-04   1.4934367e-04   6.2391049e-05  -3.9973800e-04   1.1308743e-04  -1.4214840e-04  -3.3981252e-04  -1.5303443e-03  -1.0597794e-03  -5.7770349e-04  -8.8368924e-05  -1.4469763e-04  -2.1134538e-05  -1.0814862e-03  -9.3478093e-04  -1.1477319e-03  -3.1361466e-04   2.5286307e-05  -3.0163131e-05  -4.9752057e-04  -1.0500029e-04  -1.0426166e-04  -9.1324716e-05  -2.3927858e-04   5.3162738e-05  -2.8551248e-04  -1.8651816e-04  -1.5865639e-04  -1.5306746e-05   1.2616515e-04   0.0000000e+00  -2.5635406e-03  -2.4135251e-04  -4.1383190e-04   1.4140991e-05  -1.0410839e-04  -1.1209425e-03  -1.1917837e-03  -6.2573929e-05   5.0575505e-05   9.4305943e-05   4.7359301e-05   1.0687676e-04   6.9942116e-05   3.9833394e-06  -2.3967224e-04  -4.8081295e-04  -8.9965521e-05   9.6173693e-06   1.2668700e-04   3.2267939e-05   2.5646217e-04  -1.7491613e-04  -2.7868642e-04  -5.9746850e-05   1.2918285e-04   1.5851037e-04   1.1662052e-04  -1.3588653e-04   1.7607078e-04   1.1134957e-04   1.5936959e-04   4.2593761e-05   8.2681187e-05   1.5804128e-04   2.0777662e-04   7.8647058e-05   8.7673490e-05   0.0000000e+00  -1.5662644e-04   9.0092332e-05   1.5702049e-04   1.5087128e-04   4.8316546e-05  -2.6503859e-04  -2.8088141e-04  -8.9222624e-05   5.2335031e-05   1.0083206e-05  -1.4571394e-04   1.6240136e-04  -3.8221147e-05   1.8882835e-04  -5.9291942e-04   4.6979149e-04   7.4843498e-06   1.0694276e-04   5.4075818e-05   2.7044654e-04  -3.7848979e-04  -2.8585978e-04  -7.0804857e-05   2.2293012e-04   1.1707418e-05  -6.2152178e-05  -3.1759040e-04   4.4291102e-04   1.9017371e-04  -9.7272061e-05   5.3601712e-05  -6.7087674e-05  -2.3542188e-04   3.4218680e-04   4.5103606e-04   1.0871553e-04  -3.5708636e-05   0.0000000e+00  -6.3319622e-04   1.2909510e-04   1.7289751e-04   2.2781263e-04   4.3012329e-06  -2.3687435e-04  -1.8886817e-04  -3.9428710e-04   8.7598344e-05   2.7137270e-04   1.2475271e-04   2.7995080e-04   2.0819062e-04   7.2626638e-04  -3.2944363e-04  -4.6608351e-04  -1.0775247e-05   3.3117118e-04   5.7771575e-04   5.6244979e-04   1.6015362e-04  -1.7000573e-04  -8.1452369e-05   1.7283246e-04   3.2536108e-04   1.5430805e-04   3.3337888e-04   4.2114791e-04   5.8449528e-04   3.0542254e-04   5.4971682e-04   5.5462142e-04   2.5412827e-04   4.8733244e-04   6.3516869e-04   3.0475579e-04   6.6984973e-05   0.0000000e+00  -1.0101064e-04   2.9698606e-04   2.4289368e-04   3.3896266e-04   2.6493204e-04  -4.8104968e-05  -2.9432254e-06   4.5227933e-04
  -1.1002814e-04  -9.0312389e-05   6.0402787e-05  -1.9831168e-04  -3.7400780e-05  -5.3868379e-05   1.3190945e-04   1.2430576e-04   5.7937069e-05  -5.1467913e-06  -4.9314670e-05  -2.5201496e-04   3.6209702e-05   7.5025384e-05   1.6389476e-04   7.4483307e-06  -9.4253921e-05  -1.1165451e-04  -1.5608759e-04  -4.2799587e-04  -2.7444525e-04  -4.8799245e-05  -5.6059733e-05  -6.8293504e-05   1.6176550e-05  -5.0714385e-05  -9.3446061e-05  -5.4085024e-05  -6.6960397e-05   0.0000000e+00   3.6539419e-04  -1.9732331e-04  -2.2139355e-04  -1.0835531e-04  -5.7121811e-05   2.4682530e-04   1.0989478e-04   3.5294530e-05   3.4891811e-04   1.5395170e-04   4.2314514e-04   1.8836105e-04   7.0759322e-04   4.5561123e-04   6.5390170e-04   3.4662346e-04  -7.3508032e-05   1.1479684e-04   1.3675895e-04   1.5094553e-04   6.2656460e-04   4.4758452e-04   1.5609436e-04  -2.7324955e-05   2.7699446e-05   2.8573377e-04   7.2340032e-04   1.5373386e-04  -1.9223664e-04   9.7435552e-04   4.8789752e-04   5.3751437e-04   7.5780345e-04   8.1668876e-04   2.5027337e-04   2.9544745e-04   3.3799646e-04   0.0000000e+00  -2.9453421e-04   4.7806631e-04   4.4213042e-04   1.9296784e-04   7.4099541e-05   5.2540350e-05  -2.6612349e-04   8.6865006e-05   5.3335669e-04   1.1646485e-04   1.6174111e-03   5.6182634e-04   3.0398554e-03   2.8982637e-03   4.3969111e-04   5.6292268e-04   1.7465082e-04   7.8260338e-04   1.0643779e-03   6.9464196e-04   9.8670399e-05  -1.3471118e-04   3.9978979e-04   7.6675634e-04   4.8970127e-04   8.2985083e-05   1.3961313e-03  -1.3888085e-04  -5.1695976e-04   2.4985536e-03   1.8131927e-03   2.5790463e-03   1.6222538e-03   2.2864617e-03   1.8232750e-03   9.4153412e-04   3.2941911e-04   0.0000000e+00   5.4010081e-04   6.5398863e-04   2.5903933e-04   4.6671510e-04   5.4791061e-04   2.2795747e-04  -3.8392136e-04  -1.2521657e-04   2.1281347e-05  -6.0068350e-05  -1.2010382e-04  -8.4163980e-05  -2.5609988e-05  -2.1231671e-05  -1.3448033e-04  -4.3704700e-06  -1.2795418e-04  -2.3305122e-05  -1.7015803e-05  -1.7479689e-05  -1.5194508e-04  -1.2041508e-04  -2.3488310e-04  -2.9346623e-05   7.4103093e-05   1.6250845e-04   1.4928717e-04   1.9356369e-04   9.6917415e-05  -1.0912942e-04  -2.9191098e-05  -7.1539909e-05  -1.2489594e-04   4.0318509e-05   5.4431368e-05   3.9478059e-05   1.0419073e-04   0.0000000e+00  -6.7392346e-04   1.2666499e-04   1.2036235e-04   7.0783757e-05  -3.3360922e-05  -2.4625280e-04  -3.3427117e-04  -5.7891873e-05  -1.5777018e-04  -1.0195883e-04   2.5536710e-04   3.4266626e-05   3.9716006e-04   3.1043557e-04   2.1367788e-04   6.0823832e-04   1.8923492e-04   1.5950705e-04   9.7808102e-05   4.8816214e-05   4.0225706e-04   2.8082148e-04   1.1650981e-04   1.4934920e-04   1.1384856e-04   4.3761190e-05   2.6143303e-04  -6.4043442e-05  -5.2760740e-05   3.6672164e-04   2.5704091e-04   2.3547497e-04   6.5419873e-05   3.9016534e-04   2.4418555e-04   1.6078135e-04  -5.4222093e-06   0.0000000e+00  -2.8544859e-04   1.4385438e-04   1.2969721e-04   2.1477078e-05  -2.8116009e-05   5.5111515e-05   1.3078557e-04   1.9635485e-04   5.7511881e-05   6.5253902e-05   7.0825906e-05   1.0970926e-04   6.7841369e-05   7.1682603e-05  -6.8653931e-05   3.3547342e-05   3.9069141e-05   5.6180979e-05   1.1124097e-04   9.2615386e-05   9.6788849e-05   9.9283698e-05   1.2959487e-05   5.8379143e-05   1.0663114e-04   9.7563210e-05   1.3966897e-04   3.3948727e-05   6.1673212e-05   8.9084120e-05   1.2140035e-04   8.2685001e-05   9.9276532e-05   1.5213233e-04   1.8303396e-04   7.9775233e-05   8.2267226e-05   0.0000000e+00  -1.0859733e-04   1.4196490e-04   2.3692073e-04   1.0222779e-04   7.6339481e-05  -8.7168048e-05   1.1425699e-05   2.2039176e-04  -2.5431933e-04   4.6477847e-07   1.3964301e-04  -4.5445358e-04   2.6764179e-04   2.3965420e-04   2.0701506e-05   6.7342791e-05   2.5579326e-06   2.1017549e-04   2.5698510e-04  -2.3105727e-04   6.3640753e-04   3.3698290e-04   5.2754488e-05  -5.7241420e-06   9.5519181e-05  -7.6320535e-05  -5.5056056e-04  -7.9611216e-04  -2.5581077e-04   2.6157169e-04   3.6628959e-04   4.4817709e-04   3.2445218e-04   4.6379113e-04   2.0238099e-04   1.3279190e-04   1.3400652e-04   0.0000000e+00   9.3736288e-05  -1.3903754e-05  -4.0154752e-04  -9.2285996e-05   1.9766628e-04  -3.6721191e-05  -2.8405699e-04  -5.8504835e-06   1.8470455e-04   7.7276692e-05  -4.7158733e-04   1.8007074e-04  -1.7259615e-04  -3.8705047e-04  -1.7830827e-03  -9.8949222e-04  -6.4924671e-04  -9.2900375e-05  -1.4364349e-04   5.1038987e-06  -1.1507549e-03  -1.0496260e-03  -1.3192501e-03  -2.9500161e-04   5.5931165e-05  -3.9427319e-06  -5.3606338e-04  -8.2117114e-05  -1.0503294e-04  -1.0391120e-04  -2.6521930e-04   8.1493615e-05  -3.3739870e-04  -1.9360373e-04  -1.4790167e-04  -1.9513466e-06   1.7993859e-04   0.0000000e+00  -3.0859058e-03  -2.5589519e-04  -4.3356962e-04   4.8208881e-05  -1.1241451e-04  -1.3414293e-03  -1.3802272e-03   3.7448186e-05   3.3100557e-05   7.9669745e-05   3.6037447e-05   9.3155022e-05   6.1789431e-05  -6.3932966e-06  -2.4764027e-04  -5.0504893e-04  -1.0069619e-04  -1.2748125e-05   1.0700300e-04   1.2986317e-05   2.1162298e-04  -1.9417176e-04  -2.9249610e-04  -7.5118111e-05   1.1602984e-04   1.6256658e-04   1.1600827e-04  -1.3332699e-04   1.7419434e-04   9.6558507e-05   1.5042402e-04   2.0031240e-05   7.3885195e-05   1.2642836e-04   1.7142524e-04   5.5526964e-05   6.8761711e-05   0.0000000e+00  -1.4619476e-04   7.4620939e-05   1.4351554e-04   1.3654633e-04   2.8259281e-05  -2.7503650e-04  -2.8869838e-04  -1.0976857e-04   8.6311251e-05   5.2292722e-05  -2.0631943e-04   1.9087784e-04  -1.4925665e-04   9.2658095e-05  -5.7260568e-04   4.1392363e-04   7.0120247e-06   9.0727419e-05   5.3302024e-05   3.1397333e-04  -3.5924895e-04  -2.6380723e-04  -6.4678571e-05   2.0061187e-04   1.5165560e-05  -5.5173553e-05  -3.3501396e-04   4.8326703e-04   2.2844400e-04  -2.4503903e-04  -3.9146484e-05  -1.5911580e-04  -2.8702943e-04   2.6325662e-04   4.3455772e-04   9.5983563e-05  -4.5773864e-05   0.0000000e+00  -5.8647837e-04   1.3074213e-04   2.2697498e-04   2.4058879e-04  -9.7924482e-06  -2.1572003e-04  -1.6126365e-04  -3.9119275e-04   8.0360760e-05   2.6073590e-04   1.4850059e-04   2.4958026e-04   2.5115072e-04   7.6373053e-04  -3.1960143e-04  -4.5598091e-04  -1.9188699e-05   3.0934476e-04   5.5416305e-04   5.3398312e-04   1.5824291e-04  -1.8682240e-04  -9.6267310e-05   1.7095492e-04   3.1526682e-04   1.2725499e-04   3.3952900e-04   3.7834072e-04   5.6600076e-04   3.3378044e-04   5.6152913e-04   5.4955522e-04   2.4200986e-04   4.8754681e-04   6.0966995e-04   2.9391231e-04   7.6715180e-05   0.0000000e+00  -8.3913802e-05   2.8920039e-04   2.0746577e-04   3.2691433e-04   2.5707045e-04  -4.4073789e-05  -1.6761084e-06   4.6770025e-04
  -1.2188469e-04  -9.3993268e-05   4.8610617e-05  -2.1323699e-04  -5.0690339e-05  -6.1865275e-05   1.2686640e-04   9.6264521e-05   5.1493562e-05  -1.3533488e-05  -5.5939750e-05  -2.6067321e-04   3.4302716e-05   7.5320269e-05   1.6078764e-04  -5.1126989e-06  -9.5411248e-05  -1.1116819e-04  -1.6250676e-04  -4.3627951e-04  -2.7975936e-04  -5.3740788e-05  -5.8883042e-05  -7.4711269e-05   9.9617183e-06  -5.4826846e-05  -9.6441983e-05  -6.3130433e-05  -7.4932452e-05   0.0000000e+00   3.8527492e-04  -2.0026483e-04  -2.1944852e-04  -1.1042882e-04  -6.1354981e-05   2.4458798e-04   1.0953616e-04   2.4010310e-05   3.4762256e-04   1.4159775e-04   5.1556556e-04   2.2118711e-04   8.8819339e-04   6.7629177e-04   8.3546100e-04   3.8873177e-04  -3.1138335e-05   1.6724644e-04   2.1480144e-04   2.1451372e-04   7.6752152e-04   5.5965583e-04   2.2273912e-04   2.1010495e-05   8.2517045e-05   3.1997751e-04   9.0008949e-04   1.8030206e-04  -1.8341018e-04   1.1489434e-03   6.3712288e-04   6.5810538e-04   8.7439065e-04   9.5342759e-04   3.3567565e-04   3.4880363e-04   3.5623347e-04   0.0000000e+00  -1.3463529e-04   5.5764368e-04   5.1147392e-04   2.1930413e-04   1.0741976e-04   1.1618862e-04  -2.0841301e-04   9.1906075e-05   4.7903416e-04   1.4132743e-04   1.5280833e-03   5.4476969e-04   2.8383342e-03   2.7412255e-03   3.7115473e-04   5.4446119e-04   1.7358544e-04   7.6703291e-04   1.0445798e-03   7.0359249e-04   6.8336990e-05  -1.2264130e-04   4.0824777e-04   7.5097863e-04   4.6892050e-04   7.8950718e-05   1.3198093e-03  -1.0147259e-04  -4.8079686e-04   2.4125916e-03   1.7489674e-03   2.4989794e-03   1.6171913e-03   2.2285582e-03   1.7811882e-03   9.1850178e-04   3.1277198e-04   0.0000000e+00   4.9912902e-04   6.1489919e-04   2.4755039e-04   4.5181848e-04   5.1648831e-04   2.1237304e-04  -3.9728310e-04  -1.5926963e-04   3.0087243e-05  -5.2983496e-05  -1.1970313e-04  -7.6518217e-05  -1.4969336e-05  -9.0327671e-06  -1.1420448e-04   2.1053062e-05  -1.2685769e-04  -2.2383310e-05  -1.1265454e-05  -8.1460039e-07  -1.3608806e-04  -1.1858181e-04  -2.3914421e-04  -2.4511149e-05   7.6735831e-05   1.7056772e-04   1.6384250e-04   2.1861725e-04   1.1481236e-04  -1.0549383e-04  -2.4093601e-05  -6.3327576e-05  -1.2870891e-04   3.6196143e-05   5.1988052e-05   3.9354026e-05   1.0940378e-04   0.0000000e+00  -6.8528282e-04   1.3077330e-04   1.1962544e-04   8.1413896e-05  -2.7471135e-05  -2.5068953e-04  -3.2304167e-04  -5.0440513e-05  -1.4679104e-04  -1.0187066e-04   2.5292777e-04   6.4570103e-05   3.9456569e-04   3.1100014e-04   1.6815480e-04   7.2069620e-04   1.8215979e-04   1.7479000e-04   1.1986189e-04   6.3035181e-05   3.8196722e-04   2.7485431e-04   8.4191479e-05   1.8128754e-04   1.3618381e-04   7.0189064e-05   2.7386669e-04  -4.1282617e-05  -3.9497128e-05   3.3938744e-04   2.4944743e-04   2.2381914e-04   4.2805726e-05   3.7926482e-04   2.4731198e-04   1.6389570e-04   2.3115899e-05   0.0000000e+00  -4.3977289e-04   1.4881834e-04   1.3823525e-04   3.6729243e-05  -3.0266225e-05   8.7493259e-06   9.1895768e-05   1.9020182e-04   6.2727110e-05   7.0568676e-05   8.0483141e-05   1.2343307e-04   8.6764315e-05   9.4580205e-05  -8.4117371e-05   1.3746967e-05   3.6354612e-05   6.4416864e-05   1.2219281e-04   1.1241459e-04   9.7251109e-05   8.9848688e-05   8.4786727e-06   6.5670859e-05   1.1577120e-04   1.0552329e-04   1.5963138e-04   6.3835179e-05   8.0221329e-05   1.0755018e-04   1.3661010e-04   9.1444281e-05   1.0808203e-04   1.6608555e-04   1.9805878e-04   8.3708588e-05   8.8041684e-05   0.0000000e+00  -1.1267796e-04   1.6129676e-04   2.6211782e-04   1.1048374e-04   8.1839672e-05  -9.2914507e-05  -6.0886478e-06   2.1627307e-04  -2.4077970e-04  -2.6773962e-05   8.8841418e-05  -4.9745554e-04   2.0596146e-04   1.7900578e-04   1.7852925e-04   7.7876747e-05  -2.3388240e-05   1.5467341e-04   2.7166533e-04  -2.9561523e-04   5.3790878e-04   3.8379828e-04   9.9753507e-05  -3.4177339e-05   1.6681620e-04   3.5677377e-05  -3.2657113e-04  -8.5123969e-04  -2.4881935e-04   1.4434915e-04   3.1189733e-04   3.5462169e-04   2.4979572e-04   3.9775664e-04   1.4571630e-04   1.5140736e-04   1.8983122e-04   0.0000000e+00   9.6792016e-05   3.2003814e-05  -3.0327471e-04  -8.3608383e-05   1.4184893e-04   5.6154662e-05  -2.7852170e-04   1.2025582e-04   2.1809043e-04   9.2307841e-05  -5.3482870e-04   2.5283226e-04  -1.9749226e-04  -4.2784530e-04  -2.0302002e-03  -9.1771066e-04  -7.1955246e-04  -9.4189481e-05  -1.3877194e-04   3.1995052e-05  -1.1960884e-03  -1.1600083e-03  -1.4870708e-03  -2.7526190e-04   8.7701567e-05   2.3263324e-05  -5.6166713e-04  -5.6672329e-05  -1.0337788e-04  -1.1287983e-04  -2.8560455e-04   1.0911957e-04  -3.8447567e-04  -1.9544694e-04  -1.3180700e-04   1.4501675e-05   2.3491236e-04   0.0000000e+00  -3.5890794e-03  -2.6170611e-04  -4.4011639e-04   8.4507188e-05  -1.1767377e-04  -1.5580013e-03  -1.5680218e-03   1.3446637e-04   1.6629766e-05   6.4481395e-05   2.5286919e-05   8.0357223e-05   5.3565394e-05  -1.8147904e-05  -2.5514206e-04  -5.2507947e-04  -1.1110787e-04  -3.4291129e-05   8.6419314e-05  -9.9149268e-06   1.6415129e-04  -2.1487466e-04  -3.0741328e-04  -9.0636579e-05   1.0048798e-04   1.6323599e-04   1.0953066e-04  -1.3616079e-04   1.6477774e-04   7.9159544e-05   1.3704794e-04  -2.7792841e-06   6.4298844e-05   9.0235877e-05   1.2933900e-04   3.1754752e-05   4.9773103e-05   0.0000000e+00  -1.3991769e-04   5.3708120e-05   1.2057029e-04   1.1907854e-04   8.8419492e-06  -2.8601122e-04  -2.9599404e-04  -1.2904909e-04   1.2196177e-04   1.0092604e-04  -2.7443785e-04   2.1936431e-04  -2.7585808e-04  -2.2927876e-05  -5.4437053e-04   3.4953753e-04   6.6045556e-06   6.7237177e-05   4.7740301e-05   3.5355696e-04  -3.3491102e-04  -2.3674169e-04  -5.7028470e-05   1.7238878e-04   1.5139568e-05  -5.1015630e-05  -3.6199646e-04   5.1795232e-04   2.6793587e-04  -4.0168439e-04  -1.4234934e-04  -2.5958606e-04  -3.3413604e-04   1.6691363e-04   4.0421371e-04   7.6711300e-05  -5.6402468e-05   0.0000000e+00  -5.2358404e-04   1.2717845e-04   2.7747801e-04   2.4628406e-04  -2.5463817e-05  -1.8683690e-04  -1.2048814e-04  -3.8430911e-04   6.8511103e-05   2.5189191e-04   1.6809131e-04   2.1807313e-04   2.8054694e-04   7.8492758e-04  -3.0906508e-04  -4.4265517e-04  -2.8795058e-05   2.8265230e-04   5.1796301e-04   4.9603411e-04   1.5479831e-04  -2.0563971e-04  -1.1283835e-04   1.6429201e-04   2.9350937e-04   9.1652215e-05   3.2970989e-04   3.2419970e-04   5.3688540e-04   3.4649287e-04   5.5225293e-04   5.3865581e-04   2.2060094e-04   4.6556647e-04   5.6843777e-04   2.7835873e-04   8.1712625e-05   0.0000000e+00  -6.5340527e-05   2.7128954e-04   1.6232140e-04   3.0668281e-04   2.4527648e-04  -4.0303410e-05   5.6879298e-07   4.8123937e-04
  -1.3321468e-04  -9.7272331e-05   3.5825607e-05  -2.2787892e-04  -6.4710092e-05  -7.0488254e-05   1.2478457e-04   6.8204046e-05   4.5562592e-05  -2.3038695e-05  -6.3553073e-05  -2.6827736e-04   2.9828091e-05   7.5967087e-05   1.5818554e-04  -1.8714251e-05  -9.6722748e-05  -1.1059608e-04  -1.6902197e-04  -4.4140639e-04  -2.8324090e-04  -5.8694078e-05  -6.2078556e-05  -8.0957629e-05   3.3491564e-06  -5.9841205e-05  -1.0064681e-04  -7.2710585e-05  -8.3788753e-05   0.0000000e+00   4.1038517e-04  -2.0298884e-04  -2.1787109e-04  -1.1288918e-04  -6.5656611e-05   2.4286078e-04   1.1343130e-04   1.2926598e-05   3.4963419e-04   1.3470522e-04   6.0443707e-04   2.5713873e-04   1.0622631e-03   8.9378161e-04   1.0045388e-03   4.3397984e-04   1.1185168e-05   2.2106662e-04   2.9629101e-04   2.8254294e-04   9.0268419e-04   6.6503047e-04   2.8478628e-04   7.3217750e-05   1.3636297e-04   3.5121285e-04   1.0587159e-03   2.0742041e-04  -1.6856960e-04   1.3122064e-03   7.8022172e-04   7.7785779e-04   9.8311049e-04   1.0773471e-03   4.1728325e-04   3.9944206e-04   3.7116352e-04   0.0000000e+00   1.6419267e-05   6.2774462e-04   5.6745194e-04   2.4258793e-04   1.4025401e-04   1.7078554e-04  -1.5193985e-04   9.7492146e-05   3.9010106e-04   1.3663555e-04   1.4655017e-03   5.3139058e-04   2.6981843e-03   2.6305957e-03   2.9286152e-04   5.2893453e-04   1.7574722e-04   7.5632148e-04   1.0295169e-03   7.0963194e-04   3.0665974e-05  -1.1300543e-04   4.1748882e-04   7.4573005e-04   4.5856899e-04   7.7487697e-05   1.2611336e-03  -6.7015547e-05  -4.5200761e-04   2.3957573e-03   1.7207002e-03   2.4356062e-03   1.6415849e-03   2.2037425e-03   1.7491530e-03   8.9509739e-04   3.0469671e-04   0.0000000e+00   4.6688902e-04   5.7878966e-04   2.3425957e-04   4.4064464e-04   4.9032037e-04   2.0022411e-04  -4.1508001e-04  -1.9751974e-04   3.8882727e-05  -4.4834401e-05  -1.1967967e-04  -6.6811050e-05  -4.5771266e-06   1.8833153e-06  -9.3346167e-05   4.6754612e-05  -1.2516915e-04  -2.2055186e-05  -6.6915749e-06   1.5177336e-05  -1.2160467e-04  -1.1611976e-04  -2.4062684e-04  -1.9549435e-05   7.8605329e-05   1.7587102e-04   1.7570918e-04   2.4122010e-04   1.3247369e-04  -1.0157832e-04  -1.9757312e-05  -5.5265707e-05  -1.3324763e-04   2.9352072e-05   4.7006511e-05   3.7541919e-05   1.1320112e-04   0.0000000e+00  -6.8954092e-04   1.3319159e-04   1.1759946e-04   9.0244369e-05  -2.2548753e-05  -2.5304598e-04  -3.0829595e-04  -4.2935937e-05  -1.3509462e-04  -1.0077043e-04   2.4924793e-04   9.3022955e-05   3.8560055e-04   3.0650863e-04   1.2898728e-04   8.2139883e-04   1.7346624e-04   1.8735142e-04   1.3898120e-04   7.5951352e-05   3.6534770e-04   2.6901829e-04   5.5027138e-05   2.0896621e-04   1.5564400e-04   9.4618535e-05   2.8593404e-04  -1.6812061e-05  -2.6180403e-05   3.1108149e-04   2.3893197e-04   2.0800812e-04   2.1002059e-05   3.6538654e-04   2.4746893e-04   1.6539268e-04   5.0535450e-05   0.0000000e+00  -5.7312538e-04   1.5652948e-04   1.5278948e-04   5.1032007e-05  -3.2460613e-05  -3.2651657e-05   5.6174868e-05   1.8227635e-04   6.6189794e-05   7.5093748e-05   8.9003317e-05   1.3584171e-04   1.0613200e-04   1.1845216e-04  -1.0046613e-04  -1.5017420e-05   3.3325144e-05   7.1584533e-05   1.3029591e-04   1.3213771e-04   9.5381923e-05   7.8196292e-05   5.0575426e-06   6.9879770e-05   1.2256300e-04   1.1025243e-04   1.7573676e-04   9.4715906e-05   9.8495727e-05   1.2595235e-04   1.5089630e-04   1.0012416e-04   1.1602876e-04   1.7667179e-04   2.0891071e-04   8.5011862e-05   9.0482683e-05   0.0000000e+00  -1.1140638e-04   1.7688438e-04   2.8113289e-04   1.1612120e-04   8.6407794e-05  -9.6973688e-05  -2.3925167e-05   2.0669481e-04  -2.1165259e-04  -5.5885476e-05   3.3717621e-05  -5.3449395e-04   1.3633911e-04   1.0040087e-04   3.6080628e-04   9.4780601e-05  -5.3927578e-05   8.8742003e-05   2.8262451e-04  -3.6899257e-04   4.3412532e-04   4.2578704e-04   1.4381400e-04  -6.3244004e-05   2.3946120e-04   1.5757057e-04  -8.1790747e-05  -9.0663036e-04  -2.3959689e-04   1.6121630e-05   2.4557330e-04   2.5199310e-04   1.7162498e-04   3.1117460e-04   7.4922747e-05   1.7604773e-04   2.5783443e-04   0.0000000e+00   8.1958142e-05   6.7873470e-05  -2.0808813e-04  -7.1391163e-05   8.0498706e-05   1.5745983e-04  -2.7534045e-04   2.5841658e-04   2.4814882e-04   1.0695007e-04  -5.8617760e-04   3.2856386e-04  -2.1514886e-04  -4.6033799e-04  -2.2618514e-03  -8.4922812e-04  -7.8620595e-04  -9.1909908e-05  -1.3008024e-04   5.8622226e-05  -1.2156180e-03  -1.2617434e-03  -1.6452384e-03  -2.5612962e-04   1.1921988e-04   5.0128891e-05  -5.7329857e-04  -2.9555497e-05  -9.9364876e-05  -1.1756120e-04  -2.9954253e-04   1.3482223e-04  -4.2452283e-04  -1.9199558e-04  -1.1113318e-04   3.3630863e-05   2.8847781e-04   0.0000000e+00  -4.0529250e-03  -2.5834609e-04  -4.3325467e-04   1.2137932e-04  -1.1951756e-04  -1.7628243e-03  -1.7480782e-03   2.2356488e-04   2.2903788e-06   4.9768965e-05   1.6034519e-05   6.9978503e-05   4.5883372e-05  -3.0556119e-05  -2.6206918e-04  -5.4020659e-04  -1.2054867e-04  -5.3582008e-05   6.6282017e-05  -3.5114675e-05   1.1686094e-04  -2.3653231e-04  -3.2347552e-04  -1.0539158e-04   8.3599905e-05   1.6067557e-04   9.7631694e-05  -1.4423253e-04   1.4823897e-04   6.0451558e-05   1.2011128e-04  -2.4108465e-05   5.4874085e-05   5.1468919e-05   8.4000397e-05   8.9604981e-06   3.1906114e-05   0.0000000e+00  -1.3821585e-04   2.8509434e-05   8.9406145e-05   9.9511989e-05  -8.7771359e-06  -2.9794480e-04  -3.0259511e-04  -1.4602629e-04   1.5800385e-04   1.5486466e-04  -3.4784940e-04   2.4697120e-04  -4.1570917e-04  -1.5594937e-04  -5.1056857e-04   2.8082217e-04   6.2268806e-06   3.7040070e-05   3.7276728e-05   3.8714272e-04  -3.0783533e-04  -2.0601225e-04  -4.7816985e-05   1.3964866e-04   1.0652367e-05  -5.0484447e-05  -3.9972988e-04   5.4534851e-04   3.0749339e-04  -5.6225493e-04  -2.5266037e-04  -3.6499933e-04  -3.7463979e-04   5.6526938e-05   3.6122367e-04   5.1517387e-05  -6.7122931e-05   0.0000000e+00  -4.4632714e-04   1.1832036e-04   3.2201181e-04   2.4444789e-04  -4.2066666e-05  -1.5148990e-04  -6.7583190e-05  -3.7524327e-04   5.2476100e-05   2.4533244e-04   1.8222412e-04   1.8667195e-04   2.9423811e-04   7.8626674e-04  -2.9857912e-04  -4.2663833e-04  -3.9206750e-05   2.5222657e-04   4.6989144e-04   4.5020614e-04   1.4973298e-04  -2.2540710e-04  -1.2992678e-04   1.5268870e-04   2.5988927e-04   4.8206271e-05   3.0176044e-04   2.6035160e-04   4.9786708e-04   3.4303030e-04   5.2157213e-04   5.2256762e-04   1.9173779e-04   4.2131748e-04   5.1210901e-04   2.5860829e-04   8.1644034e-05   0.0000000e+00  -4.5936841e-05   2.4312242e-04   1.0785479e-04   2.7843264e-04   2.3001222e-04  -3.7053654e-05   4.2713764e-06   4.9273288e-04
  -1.4352086e-04  -1.0009040e-04   2.2415403e-05  -2.4182609e-04  -7.9050872e-05  -7.9709898e-05   1.2485623e-04   4.1938123e-05   4.0200135e-05  -3.3331851e-05  -7.1825377e-05  -2.7470784e-04   2.2528786e-05   7.6542643e-05   1.5576169e-04  -3.2538990e-05  -9.8084549e-05  -1.0979921e-04  -1.7573461e-04  -4.4345174e-04  -2.8496329e-04  -6.3620775e-05  -6.5613951e-05  -8.6731838e-05  -3.5962034e-06  -6.5435310e-05  -1.0583782e-04  -8.2399940e-05  -9.2875266e-05   0.0000000e+00   4.3659367e-04  -2.0555326e-04  -2.1697823e-04  -1.1558573e-04  -6.9913823e-05   2.4112696e-04   1.2035591e-04   3.0598081e-06   3.5547005e-04   1.3356147e-04   6.8735572e-04   2.9474449e-04   1.2245056e-03   1.1008905e-03   1.1557077e-03   4.8220271e-04   5.2146626e-05   2.7478779e-04   3.7845131e-04   3.5298533e-04   1.0273249e-03   7.6077851e-04   3.4055260e-04   1.2741574e-04   1.8722291e-04   3.7816369e-04   1.1942526e-03   2.3412159e-04  -1.4884776e-04   1.4586576e-03   9.1201583e-04   8.9354781e-04   1.0795715e-03   1.1841286e-03   4.9187619e-04   4.4596529e-04   3.8215231e-04   0.0000000e+00   1.5200246e-04   6.8586119e-04   6.0759047e-04   2.6189967e-04   1.7121274e-04   2.1408729e-04  -9.8647085e-05   1.0364118e-04   2.7132344e-04   1.0273331e-04   1.4323712e-03   5.2266669e-04   2.6245059e-03   2.5718425e-03   2.1050627e-04   5.1726156e-04   1.8054481e-04   7.5141484e-04   1.0210964e-03   7.1360974e-04  -1.1644341e-05  -1.0712325e-04   4.2680950e-04   7.5197765e-04   4.5926915e-04   7.9109916e-05   1.2244103e-03  -3.5824332e-05  -4.3132433e-04   2.4431565e-03   1.7287704e-03   2.3931481e-03   1.6921484e-03   2.2118478e-03   1.7298674e-03   8.7360783e-04   3.0514217e-04   0.0000000e+00   4.4414583e-04   5.4766402e-04   2.2064911e-04   4.3393033e-04   4.7073096e-04   1.9224107e-04  -4.3727235e-04  -2.3736917e-04   4.7566863e-05  -3.5893209e-05  -1.2040002e-04  -5.5434762e-05   4.8534457e-06   1.0732598e-05  -7.2284460e-05   7.1515677e-05  -1.2302635e-04  -2.2481805e-05  -3.7751959e-06   2.9549100e-05  -1.0918898e-04  -1.1308158e-04  -2.3932552e-04  -1.4899935e-05   7.9572627e-05   1.7828059e-04   1.8439976e-04   2.6046148e-04   1.4927131e-04  -9.7905319e-05  -1.6719344e-05  -4.7955840e-05  -1.3868337e-04   1.9888083e-05   3.9610724e-05   3.4197241e-05   1.1543475e-04   0.0000000e+00  -6.8587058e-04   1.3393351e-04   1.1452953e-04   9.6973639e-05  -1.9005840e-05  -2.5336647e-04  -2.9006994e-04  -3.5875328e-05  -1.2352753e-04  -9.8820483e-05   2.4541631e-04   1.1879278e-04   3.7231280e-04   2.9877222e-04   9.9110131e-05   9.0638756e-04   1.6432969e-04   1.9716436e-04   1.5475762e-04   8.7986489e-05   3.5462169e-04   2.6462977e-04   3.1118987e-05   2.3159518e-04   1.7174793e-04   1.1610021e-04   2.9855885e-04   9.2262470e-06  -1.3073041e-05   2.8437691e-04   2.2689026e-04   1.8957502e-04   1.2636784e-06   3.5004959e-04   2.4519186e-04   1.6546122e-04   7.5332990e-05   0.0000000e+00  -6.7868869e-04   1.6719305e-04   1.7317753e-04   6.3773527e-05  -3.4522247e-05  -6.6801536e-05   2.6332764e-05   1.7296946e-04   6.8075742e-05   7.8749900e-05   9.6024822e-05   1.4680986e-04   1.2522807e-04   1.4230637e-04  -1.1789471e-04  -5.1454466e-05   2.9985565e-05   7.7414423e-05   1.3527708e-04   1.5108666e-04   9.0614190e-05   6.4218175e-05   2.3424370e-06   7.0979909e-05   1.2690046e-04   1.1167933e-04   1.8743373e-04   1.2560654e-04   1.1596560e-04   1.4330961e-04   1.6365651e-04   1.0846812e-04   1.2280454e-04   1.8337000e-04   2.1517841e-04   8.3774362e-05   8.9815389e-05   0.0000000e+00  -1.0608725e-04   1.8807280e-04   2.9301213e-04   1.1900846e-04   8.9978550e-05  -9.9824461e-05  -4.1959522e-05   1.9256338e-04  -1.6805889e-04  -8.6715265e-05  -2.2638073e-05  -5.6507363e-04   6.4215681e-05   8.2719974e-06   5.5783494e-04   1.1862397e-04  -8.7969525e-05   1.5299326e-05   2.8911545e-04  -4.4968128e-04   3.2977074e-04   4.5990372e-04   1.8165358e-04  -9.1059506e-05   3.0973435e-04   2.8411804e-04   1.7121630e-04  -9.6034035e-04  -2.2841279e-04  -1.1548452e-04   1.7207502e-04   1.4653789e-04   9.4587056e-05   2.0898081e-04  -6.8008667e-06   2.0624873e-04   3.3658059e-04   0.0000000e+00   4.4887779e-05   9.0989129e-05  -1.2174056e-04  -5.5641683e-05   1.6959219e-05   2.6258139e-04  -2.7733127e-04   4.0145433e-04   2.7368568e-04   1.2066538e-04  -6.2289849e-04   4.0408616e-04  -2.2425490e-04  -4.8306405e-04  -2.4684646e-03  -7.8861291e-04  -8.4673887e-04  -8.5948050e-05  -1.1776388e-04   8.4083123e-05  -1.2087845e-03  -1.3507810e-03  -1.7879610e-03  -2.3929522e-04   1.4904031e-04   7.5253366e-05  -5.7065669e-04  -1.7859529e-06  -9.3216654e-05  -1.1750385e-04  -3.0645887e-04   1.5745886e-04  -4.5560067e-04  -1.8349345e-04  -8.6942976e-05   5.4836808e-05   3.3792934e-04   0.0000000e+00  -4.4588423e-03  -2.4591684e-04  -4.1358431e-04   1.5702114e-04  -1.1774606e-04  -1.9483535e-03  -1.9130283e-03   3.0026634e-04  -8.9095568e-06   3.6549272e-05   9.1277216e-06   6.3373134e-05   3.9314638e-05  -4.2824635e-05  -2.6826722e-04  -5.4988979e-04  -1.2837539e-04  -6.9297118e-05   4.7938622e-05  -6.1095028e-05   7.2578294e-05  -2.5855652e-04  -3.4058999e-04  -1.1845415e-04   6.6510158e-05   1.5522924e-04   8.1132121e-05  -1.5696446e-04   1.2541964e-04   4.1825265e-05   1.0071996e-04  -4.2254821e-05   4.6611406e-05   1.2303764e-05   3.8105975e-05  -1.1249568e-05   1.6276590e-05   0.0000000e+00  -1.4118238e-04   4.4695351e-07   5.1750896e-05   7.8993101e-05  -2.3547013e-05  -3.1066705e-04  -3.0833838e-04  -1.5973399e-04   1.9313566e-04   2.1272306e-04  -4.2405759e-04   2.7283190e-04  -5.6575600e-04  -3.0390920e-04  -4.7380441e-04   2.1206071e-04   5.8565153e-06   1.0513114e-06   2.2031727e-05   4.1289518e-04  -2.8060026e-04  -1.7312800e-04  -3.7016142e-05   1.0398085e-04   8.9046019e-07  -5.4222862e-05  -4.4884988e-04   5.6409019e-04   3.4585397e-04  -7.2116572e-04  -3.6645623e-04  -4.7175556e-04  -4.0674580e-04  -6.3892081e-05   3.0737647e-04   2.1309122e-05  -7.7511994e-05   0.0000000e+00  -3.5725161e-04   1.0431028e-04   3.5839337e-04   2.3500277e-04  -5.8917679e-05  -1.1128853e-04  -4.1856573e-06  -3.6570339e-04   3.2794227e-05   2.4114247e-04   1.9001438e-04   1.5631716e-04   2.9130538e-04   7.6564910e-04  -2.8856077e-04  -4.0826484e-04  -4.9947810e-05   2.1929942e-04   4.1135431e-04   3.9833326e-04   1.4295015e-04  -2.4476292e-04  -1.4604575e-04   1.3638170e-04   2.1496898e-04  -1.9081454e-06   2.5476786e-04   1.8874832e-04   4.4994324e-04   3.2411964e-04   4.7074759e-04   5.0210386e-04   1.5759392e-04   3.5628688e-04   4.4219641e-04   2.3537348e-04   7.6519410e-05   0.0000000e+00  -2.6330381e-05   2.0514642e-04   4.4828505e-05   2.4276091e-04   2.1189215e-04  -3.4535267e-05   9.9090666e-06   5.0199655e-04
  -1.5230993e-04  -1.0237092e-04   8.7771781e-06  -2.5456878e-04  -9.3244019e-05  -8.9414379e-05   1.2595289e-04   1.9228754e-05   3.5390181e-05  -4.3993941e-05  -8.0329943e-05  -2.7978835e-04   1.2334847e-05   7.6570754e-05   1.5307734e-04  -4.5699536e-05  -9.9314078e-05  -1.0857428e-04  -1.8259226e-04  -4.4247615e-04  -2.8497057e-04  -6.8451541e-05  -6.9383632e-05  -9.1717916e-05  -1.0791047e-05  -7.1170690e-05  -1.1162342e-04  -9.1713197e-05  -1.0142960e-04   0.0000000e+00   4.5937540e-04  -2.0786566e-04  -2.1683191e-04  -1.1827064e-04  -7.3976025e-05   2.3867598e-04   1.2872735e-04  -4.6428853e-06   3.6531928e-04   1.3808429e-04   7.6203383e-04   3.3230150e-04   1.3700314e-03   1.2907573e-03   1.2849000e-03   5.3313770e-04   9.0572467e-05   3.2686383e-04   4.5834018e-04   4.2351182e-04   1.1372612e-03   8.4469016e-04   3.8883869e-04   1.8154235e-04   2.3320774e-04   3.9971157e-04   1.3031879e-03   2.5932792e-04  -1.2567659e-04   1.5829575e-03   1.0274607e-03   1.0017994e-03   1.1596962e-03   1.2699060e-03   5.5635121e-04   4.8716372e-04   3.8871620e-04   0.0000000e+00   2.6650580e-04   7.3005164e-04   6.3035990e-04   2.7641580e-04   1.9894755e-04   2.4474097e-04  -5.0015814e-05   1.1039093e-04   1.3013723e-04   4.2136574e-05   1.4290683e-03   5.1813175e-04   2.6176490e-03   2.5659583e-03   1.3012597e-04   5.0994486e-04   1.8696436e-04   7.5246639e-04   1.0203477e-03   7.1622565e-04  -5.5672674e-05  -1.0613879e-04   4.3529373e-04   7.6942807e-04   4.7058649e-04   8.4114028e-05   1.2121863e-03  -7.8498463e-06  -4.1875672e-04   2.5452022e-03   1.7705482e-03   2.3734464e-03   1.7634834e-03   2.2498438e-03   1.7243444e-03   8.5581229e-04   3.1340905e-04   0.0000000e+00   4.3064707e-04   5.2329985e-04   2.0820140e-04   4.3163730e-04   4.5836993e-04   1.8864489e-04  -4.6356108e-04  -2.7628507e-04   5.6019518e-05  -2.6488557e-05  -1.2213606e-04  -4.2949945e-05   1.2629955e-05   1.6828469e-05  -5.1361403e-05   9.4089963e-05  -1.2051942e-04  -2.3787970e-05  -2.9225720e-06   4.1393318e-05  -9.9346029e-05  -1.0950087e-04  -2.3530939e-04  -1.1013996e-05   7.9471348e-05   1.7775977e-04   1.8950905e-04   2.7551641e-04   1.6455248e-04  -9.5058029e-05  -1.5489700e-05  -4.1980166e-05  -1.4512171e-04   8.0086329e-06   3.0008479e-05   2.9535319e-05   1.1593455e-04   0.0000000e+00  -6.7412286e-04   1.3304367e-04   1.1067173e-04   1.0137528e-04  -1.7173209e-05  -2.5171961e-04  -2.6854045e-04  -2.9759826e-05  -1.1288634e-04  -9.6230418e-05   2.4246907e-04   1.4122361e-04   3.5692935e-04   2.8977878e-04   8.0818908e-05   9.7254166e-04   1.5595337e-04   2.0435494e-04   1.6697500e-04   9.9618428e-05   3.5155492e-04   2.6286470e-04   1.4225511e-05   2.4870427e-04   1.8420359e-04   1.3385707e-04   3.1258972e-04   3.6600524e-05  -4.1481824e-07   2.6161260e-04   2.1473888e-04   1.7015429e-04  -1.5304896e-05   3.3470450e-04   2.4107050e-04   1.6434441e-04   9.6140817e-05   0.0000000e+00  -7.5151863e-04   1.8075265e-04   1.9874606e-04   7.4405172e-05  -3.6272552e-05  -9.1912452e-05   4.6713382e-06   1.6273721e-04   6.8665768e-05   8.1495744e-05   1.0129303e-04   1.5628272e-04   1.4332983e-04   1.6509856e-04  -1.3653652e-04  -9.3745771e-05   2.6330999e-05   8.1729587e-05   1.3704185e-04   1.6855960e-04   8.2538342e-05   4.7904235e-05  -8.8941442e-08   6.9147848e-05   1.2881401e-04   1.0992120e-04   1.9445158e-04   1.5548928e-04   1.3212341e-04   1.5867614e-04   1.7435756e-04   1.1620907e-04   1.2817157e-04   1.8590853e-04   2.1673473e-04   8.0261899e-05   8.6489050e-05   0.0000000e+00  -9.8224604e-05   1.9447871e-04   2.9722267e-04   1.1918011e-04   9.2544598e-05  -1.0202319e-04  -6.0092752e-05   1.7501128e-04  -1.1218274e-04  -1.1910003e-04  -7.7035437e-05  -5.8893287e-04  -4.7048670e-06  -9.1789824e-05   7.5779297e-04   1.4925808e-04  -1.2407048e-04  -6.2128871e-05   2.9057537e-04  -5.3550897e-04   2.2951654e-04   4.8336498e-04   2.1022190e-04  -1.1583133e-04   3.7382575e-04   4.0945398e-04   4.1810503e-04  -1.0099408e-03  -2.1543385e-04  -2.4253459e-04   9.6825897e-05   4.4812238e-05   2.3234970e-05   9.7248354e-05  -9.5437630e-05   2.4107980e-04   4.2369022e-04   0.0000000e+00  -1.7535688e-05   9.9419636e-05  -4.9522195e-05  -3.6516668e-05  -4.5245274e-05   3.6641759e-04  -2.8726988e-04   5.4097458e-04   2.9374062e-04   1.3294143e-04  -6.4296909e-04   4.7603060e-04  -2.2396323e-04  -4.9503419e-04  -2.6412092e-03  -7.4004910e-04  -8.9875580e-04  -7.6421661e-05  -1.0221987e-04   1.0751712e-04  -1.1763654e-03  -1.4233947e-03  -1.9098822e-03  -2.2629915e-04   1.7572731e-04   9.7248145e-05  -5.5415795e-04   2.5513520e-05  -8.5311822e-05  -1.1250897e-04  -3.0611927e-04   1.7603700e-04  -4.7616779e-04  -1.7047432e-04  -6.0549545e-05   7.7370293e-05   3.8063186e-04   0.0000000e+00  -4.7905780e-03  -2.2506407e-04  -3.8247955e-04   1.8958572e-04  -1.1235163e-04  -2.1076993e-03  -2.0555864e-03   3.6085859e-04  -1.6162896e-05   2.5749455e-05   5.2788403e-06   6.1634438e-05   3.4362154e-05  -5.4152806e-05  -2.7351630e-04  -5.5380297e-04  -1.3399882e-04  -8.0312827e-05   3.2654248e-05  -8.6254549e-05   3.3957611e-05  -2.8029501e-04  -3.5852544e-04  -1.2893374e-04   5.0393278e-05   1.4742350e-04   6.1163503e-05  -1.7340343e-04   9.7533278e-05   2.4651761e-05   8.0136347e-05  -5.5677542e-05   4.0480978e-05  -2.5065213e-05  -5.6425188e-06  -2.7411424e-05   3.8380125e-06   0.0000000e+00  -1.4856266e-04  -2.8907585e-05   9.7085208e-06   5.8696795e-05  -3.4600038e-05  -3.2385199e-04  -3.1307587e-04  -1.6936229e-04   2.2611036e-04   2.7290500e-04  -5.0041822e-04   2.9613816e-04  -7.2193776e-04  -4.6339410e-04  -4.3680050e-04   1.4737230e-04   5.4763385e-06  -3.9538318e-05   2.3345957e-06   4.2932255e-04  -2.5583106e-04  -1.3968116e-04  -2.4654268e-05   6.7049375e-05  -1.4725053e-05  -6.2662799e-05  -5.0937253e-04   5.7314201e-04   3.8169940e-04  -8.7241108e-04  -4.7994535e-04  -5.7631229e-04  -4.2906726e-04  -1.8989703e-04   2.4488529e-04  -1.2780167e-05  -8.7225967e-05   0.0000000e+00  -2.5964547e-04   8.5497792e-05   3.8478515e-04   2.1824435e-04  -7.5347165e-05  -6.8118553e-05   6.7543413e-05  -3.5735140e-04   1.0071597e-05   2.3899357e-04   1.9104512e-04   1.2761909e-04   2.7207625e-04   7.2272561e-04  -2.7905795e-04  -3.8765951e-04  -6.0471158e-05   1.8512947e-04   3.4429677e-04   3.4230743e-04   1.3435437e-04  -2.6211994e-04  -1.5955817e-04   1.1600252e-04   1.6010502e-04  -5.7093304e-05   1.8922321e-04   1.1151645e-04   3.9433964e-04   2.9163530e-04   4.0249175e-04   4.7817713e-04   1.2046770e-04   2.7342458e-04   3.6103802e-04   2.0953351e-04   6.6668680e-05   0.0000000e+00  -7.0980644e-06   1.5837111e-04  -2.5635041e-05   2.0068860e-04   1.9164436e-04  -3.2886453e-05   1.7949562e-05   5.0885715e-04
  -1.5912516e-04  -1.0402337e-04  -4.6789284e-06  -2.6552142e-04  -1.0678446e-04  -9.9390333e-05   1.2674310e-04   1.6416819e-06   3.1052711e-05  -5.4540089e-05  -8.8569702e-05  -2.8329060e-04  -6.2835803e-07   7.5571877e-05   1.4963628e-04  -5.7302222e-05  -1.0016376e-04  -1.0667467e-04  -1.8938053e-04  -4.3851314e-04  -2.8327180e-04  -7.3083434e-05  -7.3211116e-05  -9.5603209e-05  -1.8127511e-05  -7.6524132e-05  -1.1746723e-04  -1.0013591e-04  -1.0863542e-04   0.0000000e+00   4.7426137e-04  -2.0968877e-04  -2.1723700e-04  -1.2061520e-04  -7.7661543e-05   2.3468931e-04   1.3675533e-04  -9.3712764e-06   3.7902954e-04   1.4783479e-04   8.2635867e-04   3.6798753e-04   1.4943775e-03   1.4570230e-03   1.3896955e-03   5.8643695e-04   1.2548226e-04   3.7573826e-04   5.3299119e-04   4.9161177e-04   1.2291223e-03   9.1541745e-04   4.2898457e-04   2.3346609e-04   2.7263283e-04   4.1496181e-04   1.3835677e-03   2.8190725e-04  -1.0070148e-04   1.6800849e-03   1.1218698e-03   1.0992049e-03   1.2200574e-03   1.3314342e-03   6.0787366e-04   5.2207245e-04   3.9056728e-04   0.0000000e+00   3.5590121e-04   7.5901056e-04   6.3520877e-04   2.8545860e-04   2.2223986e-04   2.6235575e-04  -6.9538179e-06   1.1780272e-04  -2.3936904e-05  -4.0730413e-05   1.4538245e-03   5.1589401e-04   2.6736664e-03   2.6098180e-03   5.7681764e-05   5.0710898e-04   1.9366621e-04   7.5884676e-04   1.0273760e-03   7.1794609e-04  -9.8515408e-05  -1.1092555e-04   4.4191561e-04   7.9661012e-04   4.9115265e-04   9.2581562e-05   1.2252770e-03   1.7228459e-05  -4.1364457e-04   2.6884803e-03   1.8407871e-03   2.3760143e-03   1.8485603e-03   2.3124028e-03   1.7320161e-03   8.4290851e-04   3.2824038e-04   0.0000000e+00   4.2524563e-04   5.0721749e-04   1.9831992e-04   4.3301769e-04   4.5323699e-04   1.8915153e-04  -4.9344804e-04  -3.1203831e-04   6.4096636e-05  -1.6988350e-05  -1.2503567e-04  -3.0055003e-05   1.8115365e-05   1.9609214e-05  -3.0861802e-05   1.1333140e-04  -1.1768418e-04  -2.6053365e-05  -4.4361347e-06   4.9901442e-05  -9.2356345e-05  -1.0538529e-04  -2.2871158e-04  -8.3185442e-06   7.8121616e-05   1.7436646e-04   1.9073586e-04   2.8569241e-04   1.7767398e-04  -9.3642217e-05  -1.6514758e-05  -3.7867073e-05  -1.5257816e-04  -5.9915901e-06   1.8470675e-05   2.3811059e-05   1.1451522e-04   0.0000000e+00  -6.5478389e-04   1.3058880e-04   1.0626947e-04   1.0330585e-04  -1.7277358e-05  -2.4818048e-04  -2.4405815e-04  -2.5051644e-05  -1.0386233e-04  -9.3236875e-05   2.4131336e-04   1.5985376e-04   3.4166640e-04   2.8149554e-04   7.5654664e-05   1.0178790e-03   1.4948120e-04   2.0917424e-04   1.7560480e-04   1.1131266e-04   3.5735725e-04   2.6468483e-04   5.6584686e-06   2.6016658e-04   1.9290529e-04   1.4731980e-04   3.2869375e-04   6.4969706e-05   1.1579113e-05   2.4474352e-04   2.0380179e-04   1.5135872e-04  -2.7817507e-05   3.2063375e-04   2.3570487e-04   1.6232530e-04   1.1182044e-04   0.0000000e+00  -7.8873991e-04   1.9687994e-04   2.2841324e-04   8.2475802e-05  -3.7544379e-05  -1.0677830e-04  -7.0809845e-06   1.5211698e-04   6.8320727e-05   8.3328986e-05   1.0469114e-04   1.6426873e-04   1.5977355e-04   1.8581687e-04  -1.5643724e-04  -1.3969403e-04   2.2352759e-05   8.4461488e-05   1.3568061e-04   1.8388900e-04   7.0945506e-05   2.9361032e-05  -2.6877721e-06   6.4745593e-05   1.2846138e-04   1.0527153e-04   1.9682275e-04   1.8336285e-04   1.4650151e-04   1.7123630e-04   1.8258561e-04   1.2309270e-04   1.3199338e-04   1.8430473e-04   2.1375786e-04   7.4898384e-05   8.1134834e-05   0.0000000e+00  -8.9446984e-05   1.9602204e-04   2.9370194e-04   1.1683549e-04   9.4157035e-05  -1.0415054e-04  -7.8251544e-05   1.5529871e-04  -4.7130350e-05  -1.5283524e-04  -1.2640062e-04  -6.0599417e-04  -6.4893917e-05  -1.9345940e-04   9.4740815e-04   1.8575510e-04  -1.6053491e-04  -1.3961486e-04   2.8668551e-04  -6.2372501e-04   1.3779847e-04   4.9388093e-04   2.2695241e-04  -1.3598082e-04   4.2810021e-04   5.2746774e-04   6.4356774e-04  -1.0526691e-03  -2.0070341e-04  -3.5735204e-04   2.5499161e-05  -4.6763237e-05  -3.8278624e-05  -1.7271726e-05  -1.8644519e-04   2.7919688e-04   5.1590371e-04   0.0000000e+00  -1.0679370e-04   9.2189662e-05   4.1286209e-06  -1.4319555e-05  -1.0263322e-04   4.6370701e-04  -3.0765205e-04   6.6785226e-04   3.0763922e-04   1.4331722e-04  -6.4520187e-04   5.4106589e-04  -2.1395198e-04  -4.9579045e-04  -2.7723954e-03  -7.0713509e-04  -9.4004902e-04  -6.3675561e-05  -8.4024924e-05   1.2814612e-04  -1.1204229e-03  -1.4763572e-03  -2.0063263e-03  -2.1843259e-04   1.9794513e-04   1.1482163e-04  -5.2490448e-04   5.1164086e-05  -7.6159374e-05  -1.0264467e-04  -2.9865113e-04   1.8977471e-04  -4.8517064e-04  -1.5373315e-04  -3.3441029e-05   1.0036775e-04   4.1418577e-04   0.0000000e+00  -5.0347931e-03  -1.9695396e-04  -3.4200656e-04   2.1730722e-04  -1.0352164e-04  -2.2349383e-03  -2.1689279e-03   4.0269848e-04  -1.8909901e-05   1.8156645e-05   5.0205340e-06   6.5500012e-05   3.1419925e-05  -6.3787851e-05  -2.7756610e-04  -5.5187234e-04  -1.3693861e-04  -8.5776510e-05   2.1542722e-05  -1.0901430e-04   3.3188526e-06  -3.0107115e-04  -3.7691190e-04  -1.3605690e-04   3.6368545e-05   1.3791840e-04   3.9087404e-05  -1.9229294e-04   6.6082646e-05   1.0183501e-05   5.9699106e-05  -6.3108696e-05   3.7349315e-05  -5.8556461e-05  -4.4715155e-05  -3.8308493e-05  -4.6849715e-06   0.0000000e+00  -1.5974166e-04  -5.7942002e-05  -3.4405043e-05   3.9745716e-05  -4.1296900e-05  -3.3702482e-04  -3.1669598e-04  -1.7431838e-04   2.5580852e-04   3.3369004e-04  -5.7427250e-04   3.1617926e-04  -8.7919372e-04  -6.2987660e-04  -4.0223139e-04   9.0500061e-05   5.0660484e-06  -8.3339519e-05  -2.1299526e-05   4.3537415e-04  -2.3600203e-04  -1.0725493e-04  -1.0857421e-05   3.0480551e-05  -3.6474486e-05  -7.5981961e-05  -5.8066232e-04   5.7185219e-04   4.1371198e-04  -1.0100581e-03  -5.8933582e-04  -6.7530525e-04  -4.4071289e-04  -3.1684501e-04   1.7624062e-04  -4.9465232e-05  -9.6021324e-05   0.0000000e+00  -1.5748762e-04   6.2414665e-05   3.9981592e-04   1.9481834e-04  -9.0744322e-05  -2.4041771e-05   1.4501534e-04  -3.5166446e-04  -1.5069289e-05   2.3815118e-04   1.8537134e-04   1.0081721e-04   2.3805474e-04   6.5893933e-04  -2.6973270e-04  -3.6474352e-04  -7.0199557e-05   1.5091156e-04   2.7110992e-04   2.8396041e-04   1.2387050e-04  -2.7576717e-04  -1.6881360e-04   9.2558350e-05   9.7386280e-05  -1.1541172e-04   1.0705076e-04   3.0796720e-05   3.3241771e-04   2.4838447e-04   3.2070982e-04   4.5169638e-04   8.2596052e-05   1.7691235e-04   2.7168283e-04   1.8207639e-04   5.2715405e-05   0.0000000e+00   1.1285188e-05   1.0430638e-04  -1.0208066e-04   1.5361056e-04   1.7007376e-04  -3.2161355e-05   2.8811326e-05   5.1316244e-04
  -1.6357679e-04  -1.0494808e-04  -1.7548134e-05  -2.7406376e-04  -1.1915802e-04  -1.0933421e-04   1.2582811e-04  -9.5907436e-06   2.7061714e-05  -6.4447714e-05  -9.6007235e-05  -2.8494986e-04  -1.6046575e-05   7.3108757e-05   1.4494272e-04  -6.6508195e-05  -1.0034027e-04  -1.0383466e-04  -1.9573432e-04  -4.3156750e-04  -2.7983667e-04  -7.7381682e-05  -7.6859590e-05  -9.8098913e-05  -2.5470537e-05  -8.0926254e-05  -1.2272978e-04  -1.0715982e-04  -1.1368851e-04   0.0000000e+00   4.7725655e-04  -2.1066594e-04  -2.1776902e-04  -1.2223533e-04  -8.0768759e-05   2.2833606e-04   1.4260023e-04  -1.0514143e-05   3.9613515e-04   1.6205545e-04   8.7846646e-04   3.9997634e-04   1.5935590e-03   1.5939655e-03   1.4694334e-03   6.4167046e-04   1.5613638e-04   4.1991425e-04   5.9956288e-04   5.5471393e-04   1.3005612e-03   9.7253625e-04   4.6088305e-04   2.8111429e-04   3.0409692e-04   4.2329604e-04   1.4348728e-03   3.0073093e-04  -7.5685377e-05   1.7457107e-03   1.1912010e-03   1.1824821e-03   1.2582019e-03   1.3662673e-03   6.4404096e-04   5.5002279e-04   3.8764542e-04   0.0000000e+00   4.1821520e-04   7.7209880e-04   6.2251663e-04   2.8853402e-04   2.4008472e-04   2.6750081e-04   3.0278771e-05   1.2596971e-04  -1.7999930e-04  -1.3993745e-04   1.5029823e-03   5.1281120e-04   2.7847985e-03   2.6966189e-03  -1.3986622e-06   5.0857989e-04   1.9911747e-04   7.6925584e-04   1.0414371e-03   7.1894266e-04  -1.3752707e-04  -1.2200730e-04   4.4566884e-04   8.3105136e-04   5.1881692e-04   1.0436057e-04   1.2628331e-03   3.9920919e-05  -4.1473238e-04   2.8567940e-03   1.9321532e-03   2.3982324e-03   1.9393249e-03   2.3925834e-03   1.7510164e-03   8.3549377e-04   3.4798091e-04   0.0000000e+00   4.2608947e-04   5.0062969e-04   1.9227223e-04   4.3676796e-04   4.5473570e-04   1.9302944e-04  -5.2629334e-04  -3.4288138e-04   7.1627692e-05  -7.7870101e-06  -1.2909881e-04  -1.7543347e-05   2.0776655e-05   1.8673878e-05  -1.0972496e-05   1.2832205e-04  -1.1450694e-04  -2.9300950e-05  -8.4883926e-06   5.4410600e-05  -8.8247462e-05  -1.0070666e-04  -2.1970905e-04  -7.1702819e-06   7.5342992e-05   1.6825132e-04   1.8790675e-04   2.9046804e-04   1.8803779e-04  -9.4212770e-05  -2.0129360e-05  -3.6060199e-05  -1.6095168e-04  -2.1735956e-05   5.3150583e-06   1.7300503e-05   1.1099714e-04   0.0000000e+00  -6.2879934e-04   1.2665359e-04   1.0152508e-04   1.0270590e-04  -1.9418964e-05  -2.4280560e-04  -2.1713784e-04  -2.2136315e-05  -9.7000184e-05  -9.0088710e-05   2.4264925e-04   1.7442483e-04   3.2855866e-04   2.7570315e-04   8.4337191e-05   1.0417734e-03   1.4592513e-04   2.1196829e-04   1.8078885e-04   1.2346394e-04   3.7261640e-04   2.7077263e-04   6.2121380e-06   2.6618065e-04   1.9793028e-04   1.5615420e-04   3.4726024e-04   9.3876052e-05   2.2718816e-05   2.3522351e-04   1.9521789e-04   1.3465828e-04  -3.5664860e-05   3.0886865e-04   2.2965728e-04   1.5970361e-04   1.2153302e-04   0.0000000e+00  -7.8959554e-04   2.1499327e-04   2.6074625e-04   8.7653390e-05  -3.8196388e-05  -1.1080638e-04  -7.8701956e-06   1.4172200e-04   6.7440572e-05   8.4279628e-05   1.0625830e-04   1.7083535e-04   1.7401669e-04   2.0356948e-04  -1.7754951e-04  -1.8691480e-04   1.8047337e-05   8.5660996e-05   1.3146369e-04   1.9648660e-04   5.5861221e-05   8.8208504e-06  -5.8923197e-06   5.8287379e-05   1.2611277e-04   9.8172387e-05   1.9488153e-04   2.0829427e-04   1.5869767e-04   1.8038684e-04   1.8808869e-04   1.2890062e-04   1.3424463e-04   1.7888256e-04   2.0673237e-04   6.8236360e-05   7.4509155e-05   0.0000000e+00  -8.1438654e-05   1.9293323e-04   2.8287359e-04   1.1232588e-04   9.4919950e-05  -1.0676186e-04  -9.6399109e-05   1.3471430e-04   2.3252956e-05  -1.8763085e-04  -1.6799959e-04  -6.1632746e-04  -1.1143507e-04  -2.9014331e-04   1.1129265e-03   2.2642817e-04  -1.9547832e-04  -2.1308741e-04   2.7743710e-04  -7.1109031e-04   5.8662069e-05   4.8990081e-04   2.2998360e-04  -1.5027322e-04   4.6935727e-04   6.3219112e-04   8.3242739e-04  -1.0855897e-03  -1.8413921e-04  -4.5305263e-04  -3.6412603e-05  -1.2230291e-04  -8.6457920e-05  -1.2764227e-04  -2.7507593e-04   3.1891912e-04   6.0921833e-04   0.0000000e+00  -2.2243888e-04   6.9337160e-05   3.5929562e-05   1.0475657e-05  -1.5199144e-04   5.4942827e-04  -3.4043763e-04   7.7282285e-04   3.1503520e-04   1.5140562e-04  -6.2931626e-04   5.9612107e-04  -1.9445433e-04  -4.8543382e-04  -2.8558213e-03  -6.9260568e-04  -9.6872612e-04  -4.8271366e-05  -6.3919581e-05   1.4529694e-04  -1.0441887e-03  -1.5070838e-03  -2.0735050e-03  -2.1665975e-04   2.1454366e-04   1.2686923e-04  -4.8463225e-04   7.3979744e-05  -6.6379691e-05  -8.8248425e-05  -2.8454360e-04   1.9815050e-04  -4.8211104e-04  -1.3429962e-04  -7.1994413e-06   1.2290256e-04   4.3659156e-04   0.0000000e+00  -5.1814195e-03  -1.6323115e-04  -2.9481020e-04   2.3861674e-04  -9.1637676e-05  -2.3253778e-03  -2.2470449e-03   4.2444357e-04  -1.6880598e-05   1.4360429e-05   8.6661980e-06   7.5279209e-05   3.0763076e-05  -7.1072584e-05  -2.8012447e-04  -5.4430104e-04  -1.3684655e-04  -8.5178223e-05   1.5494933e-05  -1.2791961e-04  -1.7496098e-05  -3.2023098e-04  -3.9526006e-04  -1.3922669e-04   2.5431923e-05   1.2747445e-04   1.6390025e-05  -2.1217057e-04   3.2757538e-05  -5.3852959e-07   4.0729370e-05  -6.3641947e-05   3.7903741e-05  -8.6360483e-05  -7.6919871e-05  -4.3071820e-05  -8.8518397e-06   0.0000000e+00  -1.7373912e-04  -8.5116140e-05  -7.8226696e-05   2.3144982e-05  -4.3271379e-05  -3.4958070e-04  -3.1910982e-04  -1.7427921e-04   2.8130176e-04   3.9331743e-04  -6.4307472e-04   3.3237527e-04  -1.0318297e-03  -7.9791174e-04  -3.7255442e-04   4.4645225e-05   4.5993847e-06  -1.2884726e-04  -4.8210070e-05   4.3051764e-04  -2.2325375e-04  -7.7327436e-05   4.1394062e-06  -4.2510687e-06  -6.4300813e-05  -9.4078739e-05  -6.6145183e-04   5.5998379e-04   4.4063606e-04  -1.1288924e-03  -6.9108466e-04  -7.6565902e-04  -4.4135643e-04  -4.4016101e-04   1.0405483e-04  -8.7384910e-05  -1.0376208e-04   0.0000000e+00  -5.5284502e-05   3.5754112e-05   4.0267952e-04   1.6568069e-04  -1.0459330e-04   1.8826595e-05   2.2534592e-04  -3.4979568e-04  -4.2029447e-05   2.3751465e-04   1.7350006e-04   7.5811843e-05   1.9173396e-04   5.7738805e-04  -2.5990304e-04  -3.3927849e-04  -7.8543465e-05   1.1771006e-04   1.9446196e-04   2.2491683e-04   1.1147410e-04  -2.8400044e-04  -1.7227698e-04   6.7362851e-05   2.9526276e-05  -1.7468309e-04   1.1511385e-05  -5.1401117e-05   2.6560153e-04   1.9783094e-04   2.3015268e-04   4.2347838e-04   4.5971188e-05   7.1855492e-05   1.7770819e-04   1.5402963e-04   3.5511163e-05   0.0000000e+00   2.8487369e-05   4.4875228e-05  -1.8276007e-04   1.0323079e-04   1.4800517e-04  -3.2311985e-05   4.2850592e-05   5.1480015e-04
