  -1.3520778e-05  -3.8718722e-06  -2.9759527e-05  -2.4587318e-05  -1.2469667e-05  -1.2000067e-05  -3.3428065e-05  -9.6545885e-06  -1.6565843e-05  -3.0633902e-05  -2.0032776e-05  -3.1289122e-05  -3.2716674e-05  -2.1366112e-05  -1.6892567e-05  -2.9544757e-05  -3.1379480e-05  -2.9456925e-05  -1.0977744e-05  -1.1670865e-05   1.6208565e-06  -5.2695211e-06  -8.8965620e-06  -4.0975169e-06  -1.9154848e-05  -2.4727169e-05  -3.3468414e-05  -2.9854489e-05  -1.1753294e-05  -3.0659527e-05  -1.4325048e-05  -4.7757100e-07  -3.8177185e-05  -2.7857290e-05  -3.2917275e-05  -3.2416987e-05  -4.2610919e-05  -1.8822029e-05  -3.1658873e-06  -6.7136071e-06  -4.6577098e-06  -3.7246155e-05  -2.4771977e-05  -8.3522170e-06  -9.0062451e-05  -2.5882845e-05  -1.2209069e-05   2.1487727e-05  -2.1289837e-07   5.7475089e-06  -6.6218726e-05  -8.5698879e-05  -2.9339369e-05  -3.8216317e-06   1.1144752e-05   1.6738244e-05   3.3041493e-05   5.2803296e-05   5.1028982e-05  -2.0516323e-08  -1.8558359e-06  -4.8513192e-06   2.5302946e-05  -3.3867676e-05  -3.1565466e-05  -1.0601965e-05   1.1256995e-05  -4.3744011e-05  -1.4699795e-04  -4.5767237e-06  -2.8972088e-05  -1.3583831e-05  -9.7173032e-06  -2.4809094e-05  -5.4441693e-05  -4.1205692e-05   8.9177095e-05   5.3548668e-05  -4.0153889e-05   3.1245371e-05   2.7076342e-05  -3.8324164e-05   5.1619829e-05  -7.7182265e-05  -7.7831546e-06   2.0338655e-05  -3.0632742e-05  -4.8176782e-05  -2.0304515e-05   1.3010387e-05  -1.8042313e-05  -5.4191534e-05  -1.0711885e-05  -2.9901450e-05  -3.0122806e-05  -8.0322164e-05   8.0492990e-05   5.0021942e-05  -3.7102019e-05   9.9550393e-05   5.9072046e-05  -7.1693541e-05  -8.0676926e-05  -6.5248078e-06   1.2494701e-05   8.6099133e-05   8.0538380e-05  -8.1920657e-05  -1.5232317e-04  -5.9539926e-05  -7.8301127e-06  -2.1249192e-07  -4.2581863e-05  -3.0550867e-05   1.9234043e-05   1.0807334e-05   2.4344651e-06   9.3846735e-06   1.8891283e-05   2.1536300e-05  -2.1970763e-05  -1.5088850e-05   4.0914144e-07   4.9960702e-06   1.5480212e-05   2.4133217e-05   1.1571030e-05  -1.7094194e-05  -1.2424998e-05  -6.8603135e-06  -1.3152787e-07   6.4003272e-06   6.2766283e-06   1.9038405e-05   5.2049382e-06   9.4870254e-06   9.4464287e-06  -4.6695704e-06  -1.3371076e-06   1.6357361e-05   2.2658000e-05   1.2165158e-06  -4.1453470e-08  -1.9342107e-05  -3.2987932e-05   5.5721474e-06   2.8895558e-05   1.2470729e-05  -4.3145193e-06   4.9526104e-06  -1.8131447e-05   3.2560709e-05  -6.3826053e-05  -4.0286932e-05  -2.2937377e-05  -1.1380905e-04  -4.8386547e-05  -2.9659308e-05  -7.7749251e-06  -4.8230930e-06  -1.0200402e-05  -5.2502228e-05  -6.9468834e-05  -4.5279339e-05  -1.3276975e-05   6.6832650e-06  -5.9442748e-05  -4.5758334e-05  -5.8749318e-05  -1.0291153e-04  -9.7277539e-05  -1.1750963e-04  -1.1807626e-04  -1.5982809e-05  -4.0794445e-05  -9.6268352e-05  -2.7924971e-05  -6.9909424e-05  -5.7437308e-05  -3.2802736e-05  -2.4928350e-05   2.0487070e-05   5.2499262e-05  -9.9991464e-05  -8.8387129e-05  -3.9218299e-05  -1.7619453e-05  -1.5360747e-05  -2.0130839e-05   5.9798432e-05  -2.6210276e-06  -1.6839539e-06  -5.2153304e-06  -5.4928656e-06   5.7465546e-07   2.5890231e-06  -5.0543730e-06  -6.1519259e-06   5.7794195e-06   6.4087920e-06   8.6441039e-06   9.9705768e-06  -1.1959030e-05  -4.9884028e-06  -1.7672834e-06   2.5312411e-06  -1.5564023e-06  -9.2249082e-06  -9.2743394e-06  -1.5458486e-05  -2.4281105e-05   7.8904744e-07  -1.1885222e-06  -1.8052823e-05  -1.2023449e-05   4.3959890e-06   2.0019051e-05  -9.2041851e-08  -3.2878334e-06  -8.5108304e-06  -1.1448427e-05  -1.1475650e-05   7.5142176e-06   4.4398388e-06  -2.3043356e-06   5.7810646e-06  -1.7530271e-05   3.4833697e-06   2.9246871e-05   2.3448472e-05   3.7665477e-05   6.1017292e-05   4.3743730e-05   1.9415903e-05   4.5344461e-06  -7.0729090e-06   2.1421179e-05   4.1080516e-05   2.0568324e-05   2.5904093e-05  -3.1282215e-05   1.5319884e-06   3.0423692e-05   4.3508509e-05   2.0707186e-05   2.4530212e-05   1.8573633e-05   2.1000252e-05   8.4665016e-06   2.7722585e-05   2.4778723e-05   9.0429342e-06   1.1304965e-05   4.6883957e-05   5.3449798e-05   3.3390994e-05   1.2274255e-05   3.1405389e-06  -7.9494782e-06   2.5185592e-05   5.5309762e-05   3.9167668e-05   4.0888555e-05   1.9931610e-05   1.8670948e-05   1.1212268e-05   3.7245348e-05   2.1934810e-05   6.1493682e-05   6.4295110e-05   3.8124709e-05   2.6606026e-05   3.6510212e-05   1.5503616e-05   4.4836875e-05   8.4170777e-05   4.4695654e-05   5.2146774e-05  -3.8577257e-05   1.4669456e-05   4.4256480e-05   6.8998618e-05   3.4045099e-05   3.9136355e-05   2.6778688e-05   4.5143657e-05   2.5977060e-05   2.7327542e-05   2.6178562e-05   2.5055809e-05   5.1204334e-05   3.4545338e-05   4.0811509e-05   3.1317046e-05   2.2695740e-05   2.1757685e-05  -1.8340713e-05   4.8506036e-05   5.1960125e-05   5.2518066e-05   3.9082996e-05   3.5360070e-05   5.5940640e-05   1.6445896e-05   1.2599657e-05   4.9439070e-06   2.0858398e-05   2.9483603e-05   2.9291364e-05   4.8892904e-07  -2.9269078e-05   2.2478331e-05   8.3856186e-06   1.4964285e-05  -5.7650260e-06   3.3143484e-06   3.8341767e-06  -2.7472325e-06   4.8993194e-06   1.0445706e-05   2.5527396e-05   3.5796668e-05   6.5595421e-05   9.9890888e-05   6.6379040e-05   5.1167069e-06   1.0164224e-05  -2.6986007e-05  -3.0171101e-05   1.2471296e-05  -1.6427852e-05  -2.8323617e-05  -3.5185613e-05  -5.7742620e-05  -9.2598787e-05   5.2725414e-05   1.1682544e-05  -1.7598088e-05  -3.3325722e-05  -3.8036060e-05  -6.3941939e-05  -1.1090304e-04  -4.2241114e-04   2.4873028e-05  -4.7842033e-04  -8.4546667e-04  -6.1287135e-04  -2.8554283e-04  -3.5078764e-04  -3.8424182e-04  -2.7357149e-04  -2.9496828e-04  -3.1408197e-04  -3.1255317e-04   4.3845270e-05  -3.4017994e-04  -3.3138830e-04  -1.6245396e-04  -1.4208842e-04  -3.5097551e-04  -2.8204598e-04  -4.0391794e-04  -2.9885358e-04  -2.3168503e-04  -2.3971590e-04  -1.7242020e-04  -4.2581017e-04  -3.5407768e-04  -3.9808496e-04  -2.0048215e-04   4.8122779e-05  -1.4944156e-04  -3.5408235e-04  -2.3408425e-04  -1.9366860e-04  -1.0605676e-04  -4.5503910e-06  -3.1154946e-04  -7.7616697e-05   1.8700655e-04
  -1.7148641e-05  -5.8105509e-06  -3.4929841e-05  -2.9948840e-05  -1.5271470e-05  -1.6175465e-05  -3.7619428e-05  -1.2825565e-05  -1.8984836e-05  -3.7632294e-05  -2.7328666e-05  -3.9616483e-05  -3.6771233e-05  -2.5196872e-05  -2.2950341e-05  -3.7076647e-05  -4.0116027e-05  -3.9694479e-05  -1.8707299e-05  -1.9028040e-05  -2.7118661e-06  -8.3375086e-06  -1.2530394e-05  -8.9454766e-06  -2.3404401e-05  -3.2725438e-05  -4.1982369e-05  -3.6148440e-05  -1.4466352e-05  -3.5313739e-05  -1.3616035e-05  -6.0602868e-06  -4.7589473e-05  -3.2993316e-05  -3.8901961e-05  -3.7809409e-05  -4.7996546e-05  -1.8092882e-05  -4.2053249e-06  -8.3313777e-06  -7.6938171e-06  -4.8131501e-05  -3.0353947e-05  -8.9025263e-06  -9.6636710e-05  -3.1679398e-05  -1.3586711e-05   2.3252924e-05  -8.6762177e-07   7.1674184e-06  -7.2553295e-05  -9.6654667e-05  -3.2306060e-05  -4.9414780e-06   1.1694313e-05   1.7177489e-05   3.4204489e-05   5.3467366e-05   5.1870215e-05   7.1239612e-07  -2.5316958e-06  -3.3878212e-06   3.0686638e-05  -3.8640659e-05  -3.4196450e-05  -1.0788461e-05   1.5899214e-05  -4.9741095e-05  -1.4798089e-04  -1.1553372e-05  -2.9224142e-05  -1.2705892e-05  -6.9311926e-06  -2.5093360e-05  -5.8537770e-05  -3.0939980e-05   9.4072338e-05   5.7462534e-05  -4.4991593e-05   2.8113901e-05   2.4215996e-05  -4.3019772e-05   5.8551634e-05  -8.6498930e-05  -1.0760386e-05   2.4772762e-05  -3.7402169e-05  -5.1145094e-05  -3.1563463e-05   1.8720471e-05  -2.5134211e-05  -6.3313460e-05  -1.2142036e-05  -3.3762710e-05  -3.4770186e-05  -9.4954464e-05   7.9448890e-05   5.4667583e-05  -4.0406133e-05   1.1045798e-04   6.2505395e-05  -7.3684262e-05  -8.0675748e-05  -3.5502799e-06   1.7500400e-05   1.0641026e-04   1.0411039e-04  -1.0291166e-04  -1.6682368e-04  -6.1053518e-05  -6.7282635e-06   4.5799922e-06  -3.6816452e-05  -3.3154074e-05   2.1943919e-05   1.1178355e-05   4.0622604e-06   1.1108989e-05   2.3016179e-05   2.4510395e-05  -2.4888341e-05  -1.9140774e-05  -1.1217588e-07   4.4510947e-06   1.5195844e-05   2.5924193e-05   1.0529426e-05  -2.2020094e-05  -1.3725693e-05  -7.0797443e-06  -8.4571127e-07   7.3452910e-06   7.2400414e-06   2.2696492e-05   6.3503320e-06   1.0450517e-05   1.0191248e-05  -6.4546032e-06  -5.5738492e-07   1.8259092e-05   2.4268317e-05   2.7564247e-07  -2.4059895e-06  -2.2762881e-05  -3.9343860e-05   7.2325770e-06   3.3025278e-05   1.3722631e-05  -5.5941499e-06   4.4657996e-06  -2.0413004e-05   3.3469784e-05  -7.0004881e-05  -4.3399712e-05  -2.4419467e-05  -1.2228721e-04  -5.2011347e-05  -3.0931757e-05  -5.1395150e-06  -2.3979159e-06  -1.0924506e-05  -5.7115418e-05  -7.3034285e-05  -4.6455811e-05  -1.2849754e-05   9.1340738e-06  -6.3514993e-05  -4.8140560e-05  -6.2294132e-05  -1.1428829e-04  -1.0936955e-04  -1.3148027e-04  -1.3213778e-04  -1.6607525e-05  -4.4385317e-05  -1.0637756e-04  -3.1580419e-05  -7.2114658e-05  -5.6893267e-05  -3.2986561e-05  -2.6985748e-05   2.5248384e-05   5.9323640e-05  -1.0817215e-04  -9.2968269e-05  -4.0638049e-05  -1.7211229e-05  -1.4150909e-05  -2.0992640e-05   6.5143831e-05  -2.9703595e-06  -1.8839397e-06  -5.6478148e-06  -7.6371268e-06   9.4813702e-07   2.5821521e-06  -8.1733964e-06  -9.7151847e-06   5.3813630e-06   6.4015682e-06   8.1021860e-06   1.0104628e-05  -1.7240905e-05  -8.1370715e-06  -2.1320803e-06   2.4434842e-06  -2.4300230e-06  -9.5348148e-06  -9.5193527e-06  -1.4586506e-05  -2.4433913e-05   9.3946874e-07  -1.6686540e-06  -2.0605833e-05  -1.3496060e-05   5.3742441e-06   2.1935947e-05  -7.4067509e-07  -5.2071901e-06  -1.1347987e-05  -1.7513234e-05  -1.0675928e-05   9.5840217e-06   4.5836112e-06  -3.6893965e-06   4.6729706e-06  -2.0863091e-05  -1.5321749e-06   3.6056744e-05   2.8294021e-05   4.3735852e-05   7.1102481e-05   5.2873666e-05   2.4537569e-05   6.9267641e-06  -5.5342004e-06   2.3997118e-05   4.7084676e-05   2.4702507e-05   3.2441647e-05  -3.4955358e-05   3.3828104e-06   3.8275206e-05   4.9948861e-05   2.5601717e-05   2.9595219e-05   2.4907781e-05   3.3385544e-05   1.8373679e-05   3.1842386e-05   3.0140627e-05   1.3755502e-05   1.4988878e-05   5.6775620e-05   6.2784461e-05   3.9093697e-05   1.4813557e-05   5.1458009e-06  -7.2251358e-06   3.3807967e-05   6.7365359e-05   4.6411615e-05   4.6815138e-05   2.3464547e-05   2.0248394e-05   1.0824077e-05   4.7312811e-05   2.6353608e-05   7.1856571e-05   7.8626854e-05   4.7202891e-05   3.4008851e-05   4.4657843e-05   2.0864953e-05   5.1034505e-05   9.8477052e-05   5.5969426e-05   6.4722575e-05  -3.2584016e-05   1.9861521e-05   5.6849388e-05   8.1523811e-05   4.3978375e-05   4.9948616e-05   3.6231960e-05   5.9808829e-05   3.7311190e-05   3.3729347e-05   3.2714021e-05   3.2455941e-05   5.9239872e-05   4.4587516e-05   5.0662603e-05   3.8238785e-05   2.7973672e-05   2.7489986e-05  -1.5856218e-05   6.1390888e-05   6.3446917e-05   6.4264291e-05   4.7990785e-05   4.3334893e-05   6.5329132e-05   2.3444053e-05   1.2357846e-05   1.7202391e-06   1.6699954e-05   2.4884667e-05   2.8752251e-05  -1.7360078e-06  -3.8953361e-05   1.7233478e-05   5.7722741e-06   1.0107928e-05  -9.5645490e-06  -8.6498299e-08  -1.2808291e-05  -1.2127528e-05   2.3494469e-07   6.1226915e-06   2.3565878e-05   3.8400849e-05   7.2383905e-05   1.1235122e-04   7.5205639e-05   7.3709044e-07   8.1178886e-06  -3.5019257e-05  -3.8258854e-05   9.8309054e-06  -2.2993633e-05  -3.5343172e-05  -4.3688671e-05  -7.1990640e-05  -1.0760301e-04   5.6485223e-05   1.1620719e-05  -2.0071419e-05  -4.0453836e-05  -4.6549896e-05  -7.5723813e-05  -1.2503211e-04  -5.0807123e-04   1.9191910e-05  -5.4799957e-04  -9.6060702e-04  -6.9828489e-04  -3.2093885e-04  -4.3662590e-04  -4.3306998e-04  -3.3327156e-04  -3.6644643e-04  -3.5533024e-04  -3.5243881e-04   8.7048009e-05  -3.8478077e-04  -3.7569149e-04  -1.9126129e-04  -1.7898417e-04  -4.1137102e-04  -3.3507044e-04  -4.6341272e-04  -3.5172733e-04  -2.6044891e-04  -2.6614084e-04  -1.8861531e-04  -4.6853695e-04  -3.8465553e-04  -4.3082844e-04  -2.1251392e-04   6.4661739e-05  -1.5330303e-04  -3.6351883e-04  -2.5438236e-04  -2.0086060e-04  -1.0733840e-04   1.9986220e-06  -3.4829069e-04  -6.5766142e-05   2.6895800e-04
  -2.1064666e-05  -8.0058852e-06  -3.9945220e-05  -3.5715562e-05  -1.8355189e-05  -2.0733107e-05  -4.1441567e-05  -1.6082514e-05  -2.1234555e-05  -4.4599411e-05  -3.5222953e-05  -4.8286902e-05  -3.9940852e-05  -2.8742393e-05  -2.9400445e-05  -4.4836747e-05  -4.9252332e-05  -5.0670459e-05  -2.7378078e-05  -2.7371872e-05  -7.9852701e-06  -1.1702453e-05  -1.6428585e-05  -1.4612273e-05  -2.7612615e-05  -4.1262821e-05  -5.0764051e-05  -4.2383589e-05  -1.7116914e-05  -3.9266700e-05  -1.1923792e-05  -1.2651778e-05  -5.7272660e-05  -3.8055843e-05  -4.4677709e-05  -4.2887445e-05  -5.2638413e-05  -1.6489973e-05  -4.5403317e-06  -8.6711076e-06  -1.1259891e-05  -5.8893871e-05  -3.6096765e-05  -8.6407816e-06  -9.9594583e-05  -3.8058941e-05  -1.4475124e-05   2.5276133e-05  -6.5354781e-07   9.7484371e-06  -7.6315460e-05  -1.0576161e-04  -3.4181484e-05  -5.4874987e-06   1.2959542e-05   1.8394133e-05   3.5373485e-05   5.3640808e-05   5.1967824e-05   1.4628457e-06  -2.4395031e-06   1.0252290e-06   3.5888777e-05  -4.1557147e-05  -3.4628294e-05  -9.3559235e-06   2.2557154e-05  -5.5229374e-05  -1.4438895e-04  -1.8416898e-05  -2.6706206e-05  -9.4588498e-06  -1.7576866e-06  -2.3239246e-05  -5.9939102e-05  -1.6971215e-05   9.6965084e-05   6.0089910e-05  -4.8895661e-05   2.4638867e-05   2.0749664e-05  -4.6563059e-05   6.5322902e-05  -9.5181952e-05  -1.3995511e-05   2.9525916e-05  -4.3991618e-05  -5.2498273e-05  -4.0079680e-05   2.4755078e-05  -3.2631067e-05  -7.1512358e-05  -1.3269708e-05  -3.7506452e-05  -3.9340124e-05  -1.0735154e-04   7.6542567e-05   5.8718087e-05  -4.2128593e-05   1.2084779e-04   6.5056055e-05  -7.2384141e-05  -7.6960767e-05   5.9481135e-07   2.2560334e-05   1.2665299e-04   1.2911308e-04  -1.2296314e-04  -1.7750037e-04  -6.0192129e-05  -4.4832595e-06   1.0058061e-05  -2.8269880e-05  -3.5171213e-05   2.4628231e-05   1.1317258e-05   6.2107850e-06   1.3336558e-05   2.7308159e-05   2.7383338e-05  -2.7048925e-05  -2.3151912e-05  -5.3880792e-07   4.1790415e-06   1.4654502e-05   2.7563651e-05   9.2945497e-06  -2.6894386e-05  -1.4510698e-05  -6.6538607e-06  -1.1234526e-06   8.6496623e-06   8.4695224e-06   2.6585988e-05   7.7128215e-06   1.1370623e-05   1.0954083e-05  -7.7807332e-06   6.9568608e-07   2.0326272e-05   2.5748129e-05  -4.7025249e-07  -4.8816952e-06  -2.5831545e-05  -4.5318642e-05   9.2019627e-06   3.7206353e-05   1.5159761e-05  -6.4757386e-06   4.0341922e-06  -2.1779912e-05   3.3626823e-05  -7.5315995e-05  -4.5806053e-05  -2.5722300e-05  -1.2864289e-04  -5.4762970e-05  -3.1696147e-05  -2.2245307e-06   2.3303217e-07  -1.1647733e-05  -6.1295025e-05  -7.5290788e-05  -4.6734471e-05  -1.3076996e-05   1.1435147e-05  -6.6601211e-05  -4.9807636e-05  -6.4819902e-05  -1.2426760e-04  -1.2031344e-04  -1.4390140e-04  -1.4440096e-04  -1.7331080e-05  -4.7398047e-05  -1.1561228e-04  -3.5471556e-05  -7.2739624e-05  -5.4829102e-05  -3.2680801e-05  -2.9017439e-05   2.9763128e-05   6.4757888e-05  -1.1415155e-04  -9.5475871e-05  -4.1394237e-05  -1.6530362e-05  -1.2529332e-05  -2.1497331e-05   6.8206198e-05  -3.4743055e-06  -2.1233450e-06  -5.9150095e-06  -9.9159676e-06   1.1324618e-06   2.4751022e-06  -1.1507175e-05  -1.3537950e-05   4.8026295e-06   6.4272706e-06   7.2103388e-06   1.0071429e-05  -2.2573334e-05  -1.1458591e-05  -2.3381667e-06   2.4347497e-06  -3.1271085e-06  -9.4904210e-06  -9.5127953e-06  -1.3242472e-05  -2.3914748e-05   1.0683977e-06  -2.1555985e-06  -2.2784586e-05  -1.4599236e-05   6.4836724e-06   2.3550118e-05  -1.2448465e-06  -7.0916110e-06  -1.4020955e-05  -2.4043655e-05  -9.4794428e-06   1.1776936e-05   4.6286104e-06  -4.9558163e-06   3.2783629e-06  -2.3408964e-05  -7.6623866e-06   4.3094192e-05   3.3100241e-05   4.9475424e-05   8.1082039e-05   6.2163507e-05   2.9833270e-05   9.5620548e-06  -3.4790612e-06   2.6194745e-05   5.2481804e-05   2.8914107e-05   3.9059705e-05  -3.9677578e-05   5.2543938e-06   4.6563752e-05   5.5944364e-05   3.0653694e-05   3.4806281e-05   3.1820058e-05   4.7187871e-05   2.9767720e-05   3.5543503e-05   3.5398106e-05   1.8794779e-05   1.8779641e-05   6.6605863e-05   7.1682501e-05   4.4395788e-05   1.7230188e-05   7.1219612e-06  -5.9882690e-06   4.3120119e-05   7.9455219e-05   5.3308032e-05   5.2158486e-05   2.6710102e-05   2.1676730e-05   1.0005185e-05   5.8115738e-05   3.0890144e-05   8.2156314e-05   9.3585384e-05   5.6816239e-05   4.1651325e-05   5.2723430e-05   2.6360392e-05   5.6793124e-05   1.1252650e-04   6.7593888e-05   7.7600774e-05  -2.5061699e-05   2.5072695e-05   7.0064477e-05   9.3814220e-05   5.4510496e-05   6.1146230e-05   4.6238633e-05   7.5539434e-05   4.9817370e-05   4.0207882e-05   3.9435692e-05   4.0252051e-05   6.6831558e-05   5.4993717e-05   6.0623464e-05   4.5068092e-05   3.3061960e-05   3.2820162e-05  -1.2624236e-05   7.4843815e-05   7.5079246e-05   7.6412744e-05   5.7019296e-05   5.1340244e-05   7.4412202e-05   3.0887433e-05   1.1475963e-05  -2.2336394e-06   1.1376064e-05   1.8580117e-05   2.7010150e-05  -4.2300360e-06  -4.8411523e-05   1.0671655e-05   2.6685572e-06   4.2195362e-06  -1.3415568e-05  -3.9661076e-06  -3.1652514e-05  -2.2354845e-05  -4.8015977e-06   1.1105335e-06   2.0910579e-05   4.0461034e-05   7.8102108e-05   1.2349097e-04   8.3466538e-05  -4.2709694e-06   5.6632970e-06  -4.2987909e-05  -4.6109270e-05   6.8486909e-06  -2.9589855e-05  -4.2011807e-05  -5.1795425e-05  -8.5765691e-05  -1.2114747e-04   5.9411855e-05   1.1599569e-05  -2.1811292e-05  -4.6878694e-05  -5.4500257e-05  -8.6242343e-05  -1.3675030e-04  -5.9194616e-04   1.0915799e-05  -6.1024363e-04  -1.0612212e-03  -7.7455420e-04  -3.5154527e-04  -5.2187081e-04  -4.7377107e-04  -3.9245758e-04  -4.3861451e-04  -3.9222331e-04  -3.8730545e-04   1.3594796e-04  -4.2373816e-04  -4.1421391e-04  -2.1854491e-04  -2.1748699e-04  -4.6928032e-04  -3.8650698e-04  -5.1826426e-04  -4.0329736e-04  -2.8566587e-04  -2.8776071e-04  -2.0113671e-04  -5.0086997e-04  -4.0779644e-04  -4.5476110e-04  -2.1900955e-04   8.0770471e-05  -1.5079602e-04  -3.5943474e-04  -2.7055328e-04  -2.0297884e-04  -1.0677126e-04   8.7058180e-06  -3.7980284e-04  -4.9020089e-05   3.5377379e-04
  -2.5209537e-05  -1.0409359e-05  -4.4705536e-05  -4.1822279e-05  -2.1693940e-05  -2.5548977e-05  -4.4849309e-05  -1.9304392e-05  -2.3266809e-05  -5.1343867e-05  -4.3482761e-05  -5.7058454e-05  -4.2132618e-05  -3.1869242e-05  -3.6040670e-05  -5.2612887e-05  -5.8548659e-05  -6.2058044e-05  -3.6702720e-05  -3.6483503e-05  -1.4082683e-05  -1.5261306e-05  -2.0476454e-05  -2.1001019e-05  -3.1680380e-05  -5.0100472e-05  -5.9563270e-05  -4.8389186e-05  -1.9619803e-05  -4.2339867e-05  -9.2547953e-06  -2.0054465e-05  -6.6959548e-05  -4.2952746e-05  -5.0094708e-05  -4.7520826e-05  -5.6452058e-05  -1.4112039e-05  -3.9181162e-06  -7.2411182e-06  -1.5296546e-05  -6.9033355e-05  -4.1816908e-05  -7.3840967e-06  -9.8695907e-05  -4.5032201e-05  -1.4794613e-05   2.7677192e-05   7.1695731e-07   1.3749896e-05  -7.7134005e-05  -1.1263202e-04  -3.4871593e-05  -5.3117945e-06   1.5172216e-05   2.0731322e-05   3.6824092e-05   5.3744963e-05   5.1620525e-05   2.1925242e-06  -1.3500323e-06   9.0325031e-06   4.0728823e-05  -4.2195865e-05  -3.2493255e-05  -6.0022283e-06   3.1486801e-05  -6.0207269e-05  -1.3710359e-04  -2.4615684e-05  -2.1112102e-05  -3.5091193e-06   5.9964292e-06  -1.8966241e-05  -5.8179593e-05   3.3690230e-07   9.8017217e-05   6.1377859e-05  -5.1835177e-05   2.1229484e-05   1.7063627e-05  -4.8780638e-05   7.2019432e-05  -1.0321680e-04  -1.7442217e-05   3.4344525e-05  -5.0229339e-05  -5.2236868e-05  -4.4528929e-05   3.0807219e-05  -4.0328208e-05  -7.8445778e-05  -1.4232142e-05  -4.1199619e-05  -4.3945343e-05  -1.1701554e-04   7.1969904e-05   6.2080460e-05  -4.2179357e-05   1.3060771e-04   6.6734233e-05  -6.7802904e-05  -6.9684923e-05   5.7408706e-06   2.7251209e-05   1.4591431e-04   1.5458129e-04  -1.4123076e-04  -1.8407368e-04  -5.7210747e-05  -1.1426273e-06   1.5894128e-05  -1.7385454e-05  -3.6820625e-05   2.7297343e-05   1.1279650e-05   8.8977280e-06   1.6184296e-05   3.1688135e-05   3.0132484e-05  -2.8265400e-05  -2.6922589e-05  -8.0102886e-07   4.3477546e-06   1.4014062e-05   2.9154045e-05   8.0858200e-06  -3.1466278e-05  -1.4684385e-05  -5.4829592e-06  -7.7658717e-07   1.0435121e-05   1.0062237e-05   3.0728073e-05   9.3493952e-06   1.2264183e-05   1.1797502e-05  -8.4280184e-06   2.4333411e-06   2.2632130e-05   2.7198864e-05  -8.9202597e-07  -7.3013632e-06  -2.8396018e-05  -5.0646389e-05   1.1520473e-05   4.1456466e-05   1.6872216e-05  -6.8054556e-06   3.7730317e-06  -2.2083100e-05   3.3151956e-05  -7.9763003e-05  -4.7569206e-05  -2.6961907e-05  -1.3303266e-04  -5.6715632e-05  -3.2065876e-05   7.8263353e-07   2.8455125e-06  -1.2433566e-05  -6.5163008e-05  -7.6397468e-05  -4.6298751e-05  -1.4287835e-05   1.3395374e-05  -6.8793341e-05  -5.0890111e-05  -6.6428409e-05  -1.3269025e-04  -1.2993234e-04  -1.5461328e-04  -1.5464750e-04  -1.8321353e-05  -4.9858725e-05  -1.2402929e-04  -3.9681353e-05  -7.2031246e-05  -5.1541697e-05  -3.2104788e-05  -3.1134651e-05   3.3779973e-05   6.8433223e-05  -1.1791149e-04  -9.6023976e-05  -4.1670203e-05  -1.5747008e-05  -1.0674776e-05  -2.1745746e-05   6.8699333e-05  -4.1446149e-06  -2.3841324e-06  -6.0021618e-06  -1.2210306e-05   1.0652340e-06   2.2974212e-06  -1.4897042e-05  -1.7414750e-05   4.1123236e-06   6.5939364e-06   6.0805082e-06   9.9723384e-06  -2.7659616e-05  -1.4760949e-05  -2.3060296e-06   2.5956745e-06  -3.4867331e-06  -9.0235093e-06  -9.2232819e-06  -1.1474578e-05  -2.2758847e-05   1.1905613e-06  -2.5881171e-06  -2.4423997e-05  -1.5269605e-05   7.7711778e-06   2.4904767e-05  -1.4983221e-06  -8.7797433e-06  -1.6392231e-05  -3.0831086e-05  -7.9306979e-06   1.4096038e-05   4.6215802e-06  -5.9614333e-06   1.7101406e-06  -2.4919082e-05  -1.4693177e-05   5.0164546e-05   3.7702898e-05   5.4709786e-05   9.0771957e-05   7.1366178e-05   3.5105949e-05   1.2334256e-05  -9.9620319e-07   2.7944300e-05   5.7055839e-05   3.3073106e-05   4.5484414e-05  -4.5729624e-05   7.0053856e-06   5.5048656e-05   6.1308312e-05   3.5725928e-05   4.0037830e-05   3.9117287e-05   6.1965622e-05   4.2305000e-05   3.8675086e-05   4.0340419e-05   2.3935067e-05   2.2479485e-05   7.6017110e-05   7.9815108e-05   4.9094455e-05   1.9403529e-05   8.8489347e-06  -4.3576395e-06   5.2827234e-05   9.1147745e-05   5.9553607e-05   5.6721277e-05   2.9478993e-05   2.2924448e-05   8.7688946e-06   6.9357809e-05   3.5411001e-05   9.2198047e-05   1.0873656e-04   6.6695408e-05   4.9206413e-05   6.0430398e-05   3.1765655e-05   6.1974162e-05   1.2598427e-04   7.9145288e-05   9.0328571e-05  -1.6592743e-05   3.0029838e-05   8.3450189e-05   1.0551687e-04   6.5312470e-05   7.2304375e-05   5.6377216e-05   9.1755551e-05   6.3065976e-05   4.6520381e-05   4.6074322e-05   4.8162463e-05   7.3781635e-05   6.5264289e-05   7.0241203e-05   5.1514545e-05   3.7702621e-05   3.7421639e-05  -8.9754714e-06   8.8372310e-05   8.6367025e-05   8.8520704e-05   6.5827102e-05   5.9041536e-05   8.2879072e-05   3.8347319e-05   9.9874646e-06  -6.7635526e-06   5.2082375e-06   1.0890988e-05   2.4185427e-05  -6.8483758e-06  -5.7139187e-05   3.1753589e-06  -7.4251054e-07  -2.3885432e-06  -1.7047413e-05  -8.0902829e-06  -5.1764816e-05  -3.2906523e-05  -9.8533911e-06  -4.3130758e-06   1.7810311e-05   4.2087719e-05   8.2734823e-05   1.3323263e-04   9.1134972e-05  -9.6375109e-06   3.0019286e-06  -5.0506207e-05  -5.3350877e-05   3.8329675e-06  -3.5866385e-05  -4.8010374e-05  -5.9120048e-05  -9.8485454e-05  -1.3267192e-04   6.1642446e-05   1.1820179e-05  -2.2616957e-05  -5.2245033e-05  -6.1502253e-05  -9.5069235e-05  -1.4554357e-04  -6.7136803e-04   2.6207999e-08  -6.6314858e-04  -1.1443797e-03  -8.3972314e-04  -3.7658173e-04  -6.0319369e-04  -5.0455641e-04  -4.4908483e-04  -5.0898182e-04  -4.2400980e-04  -4.1622352e-04   1.8883174e-04  -4.5595896e-04  -4.4574670e-04  -2.4334639e-04  -2.5640307e-04  -5.2323435e-04  -4.3497757e-04  -5.6739919e-04  -4.5246366e-04  -3.0686125e-04  -3.0400027e-04  -2.0990639e-04  -5.2189127e-04  -4.2334456e-04  -4.6969774e-04  -2.1997660e-04   9.5577489e-05  -1.4174229e-04  -3.4164957e-04  -2.8266539e-04  -2.0037556e-04  -1.0486498e-04   1.5177746e-05  -4.0519589e-04  -2.7900719e-05   4.3826777e-04
  -2.9514857e-05  -1.2964906e-05  -4.9133005e-05  -4.8182778e-05  -2.5243707e-05  -3.0484760e-05  -4.7815302e-05  -2.2377459e-05  -2.5046840e-05  -5.7702966e-05  -5.1862720e-05  -6.5690926e-05  -4.3331082e-05  -3.4471660e-05  -4.2667870e-05  -6.0200083e-05  -6.7771602e-05  -7.3519196e-05  -4.6370663e-05  -4.6118578e-05  -2.0861017e-05  -1.8912300e-05  -2.4560236e-05  -2.8002317e-05  -3.5534773e-05  -5.8987009e-05  -6.8134517e-05  -5.4015014e-05  -2.1906411e-05  -4.4409446e-05  -5.6730198e-06  -2.8039320e-05  -7.6386983e-05  -4.7605763e-05  -5.5026859e-05  -5.1606954e-05  -5.9404584e-05  -1.1099854e-05  -2.1243437e-06  -3.6090072e-06  -1.9699220e-05  -7.8069108e-05  -4.7298963e-05  -4.9837232e-06  -9.3937465e-05  -5.2584625e-05  -1.4487316e-05   3.0564950e-05   3.4807877e-06   1.9373059e-05  -7.4810559e-05  -1.1697922e-04  -3.4366756e-05  -4.3005831e-06   1.8507028e-05   2.4476575e-05   3.8817011e-05   5.4187843e-05   5.1128936e-05   2.8879254e-06   9.1427890e-07   2.1139860e-05   4.5086025e-05  -4.0258085e-05  -2.7560330e-05  -5.2025667e-07   4.2836908e-05  -6.4707950e-05  -1.2724682e-04  -2.9635488e-05  -1.2304710e-05   5.3405244e-06   1.6383871e-05  -1.2112416e-05  -5.2911255e-05   2.0515599e-05   9.7460373e-05   6.1315208e-05  -5.3854430e-05   1.8199557e-05   1.3525999e-05  -4.9570757e-05   7.8767868e-05  -1.1059776e-04  -2.1023103e-05   3.8931000e-05  -5.5973400e-05  -5.0455037e-05  -4.3929288e-05   3.6556972e-05  -4.8039908e-05  -8.3828124e-05  -1.5214542e-05  -4.4913922e-05  -4.8713576e-05  -1.2368384e-04   6.5869654e-05   6.4646603e-05  -4.0601897e-05   1.3959573e-04   6.7532769e-05  -6.0165082e-05  -5.9225115e-05   1.1631508e-05   3.1142348e-05   1.6329634e-04   1.7942056e-04  -1.5703955e-04  -1.8647837e-04  -5.2526820e-05   3.1521158e-06   2.1729315e-05  -4.7631523e-06  -3.8402043e-05   2.9964069e-05   1.1130096e-05   1.2112644e-05   1.9737708e-05   3.6071320e-05   3.2734868e-05  -2.8404174e-05  -3.0266266e-05  -8.4144539e-07   5.0917371e-06   1.3435451e-05   3.0791592e-05   7.1225694e-06  -3.5508456e-05  -1.4184458e-05  -3.5107903e-06   3.5013038e-07   1.2808034e-05   1.2104660e-05   3.5144954e-05   1.1314934e-05   1.3142382e-05   1.2777316e-05  -8.2181278e-06   4.6340879e-06   2.5225366e-05   2.8712324e-05  -8.8884963e-07  -9.5096096e-06  -3.0339950e-05  -5.5116501e-05   1.4219077e-05   4.5782365e-05   1.8927769e-05  -6.4683134e-06   3.7794850e-06  -2.1259196e-05   3.2179216e-05  -8.3388828e-05  -4.8801069e-05  -2.8260180e-05  -1.3571509e-04  -5.7992051e-05  -3.2173990e-05   3.7103719e-06   5.2215001e-06  -1.3350201e-05  -6.8858574e-05  -7.6556623e-05  -4.5368237e-05  -1.6734278e-05   1.4836544e-05  -7.0216039e-05  -5.1533203e-05  -6.7244053e-05  -1.3945636e-04  -1.3810640e-04  -1.6354151e-04  -1.6275788e-04  -1.9736300e-05  -5.1821295e-05  -1.3171585e-04  -4.4274143e-05  -7.0292181e-05  -4.7363000e-05  -3.1471748e-05  -3.3447977e-05   3.7059014e-05   7.0050867e-05  -1.1954534e-04  -9.4808240e-05  -4.1667766e-05  -1.5028044e-05  -8.7746076e-06  -2.1865184e-05   6.6476117e-05  -4.9749463e-06  -2.6383955e-06  -5.9087513e-06  -1.4397943e-05   7.0064490e-07   2.0871515e-06  -1.8195259e-05  -2.1136594e-05   3.3868736e-06   7.0030853e-06   4.8459712e-06   9.9193316e-06  -3.2224677e-05  -1.7856170e-05  -1.9657612e-06   3.0094398e-06  -3.3529952e-06  -8.0701907e-06  -8.6149021e-06  -9.3166552e-06  -2.1002439e-05   1.3254642e-06  -2.8986679e-06  -2.5371783e-05  -1.5472987e-05   9.2866454e-06   2.6060841e-05  -1.4064156e-06  -1.0113309e-05  -1.8361441e-05  -3.7691546e-05  -6.0682044e-06   1.6553854e-05   4.6191353e-06  -6.5757892e-06   9.2977419e-08  -2.5215391e-05  -2.2364644e-05   5.7066973e-05   4.1937159e-05   5.9279005e-05   9.9986144e-05   8.0222532e-05   4.0142087e-05   1.5124033e-05   1.7942144e-06   2.9187552e-05   6.0612621e-05   3.7033340e-05   5.1422956e-05  -5.3314043e-05   8.4953878e-06   6.3450661e-05   6.5860248e-05   4.0672343e-05   4.5139187e-05   4.6570335e-05   7.7220369e-05   5.5590024e-05   4.1104482e-05   4.4761179e-05   2.8942597e-05   2.5875096e-05   8.4646471e-05   8.6862876e-05   5.3011351e-05   2.1217693e-05   1.0087704e-05  -2.5114647e-06   6.2592500e-05   1.0199776e-04   6.4847991e-05   6.0327702e-05   3.1578562e-05   2.3935590e-05   7.1212740e-06   8.0696668e-05   3.9764510e-05   1.0177989e-04   1.2358629e-04   7.6525131e-05   5.6326866e-05   6.7516828e-05   3.6855707e-05   6.6448459e-05   1.3851587e-04   9.0179683e-05   1.0242258e-04  -7.8039485e-06   3.4461242e-05   9.6517302e-05   1.1628544e-04   7.6029188e-05   8.2972971e-05   6.6187557e-05   1.0779354e-04   7.6553427e-05   5.2411346e-05   5.2335975e-05   5.5884544e-05   7.9907626e-05   7.4861844e-05   7.9038314e-05   5.7282385e-05   4.1650054e-05   4.0994493e-05  -5.2980644e-06   1.0143292e-04   9.6783408e-05   1.0008780e-04   7.4060227e-05   6.6083670e-05   9.0403692e-05   4.5346850e-05   7.9583669e-06  -1.1689606e-05  -1.4509399e-06   2.2016639e-06   2.0453183e-05  -9.4402080e-06  -6.4690054e-05  -4.8225133e-06  -4.2696044e-06  -9.3915918e-06  -2.0195485e-05  -1.2213548e-05  -7.2165818e-05  -4.3264833e-05  -1.4575066e-05  -9.8747132e-06   1.4508011e-05   4.3427903e-05   8.6327214e-05   1.4159632e-04   9.8230749e-05  -1.5078517e-05   3.4317077e-07  -5.7214239e-05  -5.9653606e-05   1.0899078e-06  -4.1495826e-05  -5.3063053e-05  -6.5321852e-05  -1.0963792e-04  -1.4170607e-04   6.3346003e-05   1.2487643e-05  -2.2331529e-05  -5.6265220e-05  -6.7222425e-05  -1.0189281e-04  -1.5102451e-04  -7.4395165e-04  -1.3397934e-05  -7.0519458e-04  -1.2081216e-03  -8.9246582e-04  -3.9554702e-04  -6.7754708e-04  -5.2408674e-04  -5.0124591e-04  -5.7518483e-04  -4.5019985e-04  -4.3854832e-04   2.4388196e-04  -4.8071097e-04  -4.6943877e-04  -2.6481263e-04  -2.9448033e-04  -5.7200508e-04  -4.7931250e-04  -6.1006081e-04  -4.9827415e-04  -3.2377849e-04  -3.1454671e-04  -2.1505260e-04  -5.3129528e-04  -4.3151252e-04  -4.7586208e-04  -2.1567892e-04   1.0834042e-04  -1.2626290e-04  -3.1055498e-04  -2.9093443e-04  -1.9356237e-04  -1.0206391e-04   2.1124935e-05  -4.2382714e-04  -3.0586646e-06   5.1969671e-04
  -3.3908443e-05  -1.5610884e-05  -5.3172938e-05  -5.4691593e-05  -2.8944572e-05  -3.5395124e-05  -5.0332078e-05  -2.5204344e-05  -2.6552414e-05  -6.3549122e-05  -6.0117060e-05  -7.3955745e-05  -4.3593071e-05  -3.6476696e-05  -4.9087062e-05  -6.7410096e-05  -7.6701553e-05  -8.4723109e-05  -5.6065320e-05  -5.6019908e-05  -2.8157912e-05  -2.2561185e-05  -2.8571945e-05  -3.5497178e-05  -3.9130220e-05  -6.7673352e-05  -7.6246875e-05  -5.9139306e-05  -2.3932008e-05  -4.5414834e-05  -1.2947452e-06  -3.6356268e-05  -8.5305295e-05  -5.1949694e-05  -5.9377033e-05  -5.5074554e-05  -6.1514309e-05  -7.6286887e-06   1.0181120e-06   2.5764382e-06  -2.4307897e-05  -8.5555553e-05  -5.2299849e-05  -1.3316234e-06  -8.5549907e-05  -6.0670050e-05  -1.3515655e-05   3.4036919e-05   7.8131780e-06   2.6743946e-05  -6.9327091e-05  -1.1862887e-04  -3.2733836e-05  -2.3720944e-06   2.3075114e-05   2.9840278e-05   4.1580654e-05   5.5350562e-05   5.0783896e-05   3.5676351e-06   4.4759929e-06   3.7682033e-05   4.8921190e-05  -3.5584104e-05  -1.9749413e-05   7.1943942e-06   5.6622034e-05  -6.8774733e-05  -1.1608779e-04  -3.3032307e-05  -3.2712547e-07   1.7138815e-05   2.9317062e-05  -2.6471472e-06  -4.3925358e-05   4.3025057e-05   9.5607128e-05   5.9940753e-05  -5.5074412e-05   1.5759514e-05   1.0448356e-05  -4.8920126e-05   8.5698290e-05  -1.1732308e-04  -2.4628289e-05   4.2984072e-05  -6.1139190e-05  -4.7324469e-05  -3.7765809e-05   4.1705702e-05  -5.5590729e-05  -8.7437130e-05  -1.6422984e-05  -4.8686703e-05  -5.3749528e-05  -1.2733855e-04   5.8330321e-05   6.6296368e-05  -3.7571955e-05   1.4766173e-04   6.7440976e-05  -4.9889424e-05  -4.6164356e-05   1.7930690e-05   3.3849229e-05   1.7798230e-04   2.0247109e-04  -1.6992430e-04  -1.8486607e-04  -4.6680690e-05   8.1751459e-06   2.7211138e-05   8.8776966e-06  -4.0254873e-05   3.2639462e-05   1.0936061e-05   1.5813763e-05   2.4038040e-05   4.0369501e-05   3.5167565e-05  -2.7397741e-05  -3.3023327e-05  -6.2453792e-07   6.4998155e-06   1.3068897e-05   3.2558322e-05   6.6035344e-06  -3.8835764e-05  -1.2990321e-05  -7.2925586e-07   2.3631556e-06   1.5846201e-05   1.4666572e-05   3.9854528e-05   1.3653844e-05   1.4009643e-05   1.3935558e-05  -7.0279593e-06   7.2430034e-06   2.8122597e-05   3.0361036e-05  -3.9816461e-07  -1.1375674e-05  -3.1593479e-05  -5.8597204e-05   1.7314322e-05   5.0171295e-05   2.1359318e-05  -5.3981281e-06   4.1225207e-06  -1.9340111e-05   3.0845865e-05  -8.6271779e-05  -4.9649767e-05  -2.9737921e-05  -1.3703502e-04  -5.8750933e-05  -3.2161304e-05   6.4103663e-06   7.1565579e-06  -1.4452191e-05  -7.2527536e-05  -7.5995207e-05  -4.4170169e-05  -2.0570174e-05   1.5606916e-05  -7.1015651e-05  -5.1887534e-05  -6.7410797e-05  -1.4452049e-04  -1.4478263e-04  -1.7068938e-04  -1.6870974e-04  -2.1711896e-05  -5.3359636e-05  -1.3877720e-04  -4.9284903e-05  -6.7861446e-05  -4.2643905e-05  -3.0977976e-05  -3.6053828e-05   3.9387352e-05   6.9404097e-05  -1.1925151e-04  -9.2082919e-05  -4.1590102e-05  -1.4525776e-05  -7.0131736e-06  -2.1994859e-05   6.1540029e-05  -5.9451751e-06  -2.8494743e-06  -5.6466058e-06  -1.6362282e-05   9.9203708e-09   1.8881574e-06  -2.1279270e-05  -2.4503960e-05   2.7000864e-06   7.7429024e-06   3.6513652e-06   1.0025678e-05  -3.6031142e-05  -2.0575271e-05  -1.2648416e-06   3.7448723e-06  -2.5861105e-06  -6.5780038e-06  -7.6489518e-06  -6.7830159e-06  -1.8681430e-05   1.4978889e-06  -3.0177189e-06  -2.5492982e-05  -1.5204614e-05   1.1074080e-05   2.7093115e-05  -8.9406363e-07  -1.0947347e-05  -1.9872684e-05  -4.4480012e-05  -3.9251036e-06   1.9166134e-05   4.6814227e-06  -6.6908768e-06  -1.4446768e-06  -2.4203706e-05  -3.0387573e-05   6.3588409e-05   4.5640848e-05   6.3044140e-05   1.0853536e-04   8.8472804e-05   4.4719443e-05   1.7804391e-05   4.7436306e-06   2.9883730e-05   6.2987748e-05   4.0632144e-05   5.6584601e-05  -6.2535383e-05   9.5921594e-06   7.1465556e-05   6.9434898e-05   4.5341309e-05   4.9946184e-05   5.3924223e-05   9.2423594e-05   6.9193470e-05   4.2717301e-05   4.8470617e-05   3.3583831e-05   2.8751201e-05   9.2141407e-05   9.2531736e-05   5.5998634e-05   2.2566491e-05   1.0602071e-05  -6.6984775e-07   7.2049069e-05   1.1156189e-04   6.8907917e-05   6.2831132e-05   3.2829100e-05   2.4632045e-05   5.0677314e-06   9.1755783e-05   4.3785506e-05   1.1069885e-04   1.3760629e-04   8.5957341e-05   6.2661096e-05   7.3740536e-05   4.1406290e-05   7.0100672e-05   1.4980050e-04   1.0024601e-04   1.1339983e-04   6.7075289e-07   3.8108051e-05   1.0876286e-04   1.2579662e-04   8.6290565e-05   9.2697302e-05   7.5194961e-05   1.2293629e-04   8.9725777e-05   5.7625377e-05   5.7918067e-05   6.3108009e-05   8.5049428e-05   8.3231648e-05   8.6539481e-05   6.2093859e-05   4.4681541e-05   4.3278342e-05  -2.0098310e-06   1.1346146e-04   1.0579093e-04   1.1058318e-04   8.1367717e-05   7.2108812e-05   9.6655834e-05   5.1388697e-05   5.4875506e-06  -1.6818049e-05  -8.2410312e-06  -7.0703674e-06   1.6035950e-05  -1.1851641e-05  -7.0701884e-05  -1.2861792e-05  -7.7220356e-06  -1.6471306e-05  -2.2619761e-05  -1.6089724e-05  -9.1884021e-05  -5.2945803e-05  -1.8654087e-05  -1.5314763e-05   1.1228954e-05   4.4646455e-05   8.8980000e-05   1.4868922e-04   1.0480850e-04  -2.0320957e-05  -2.1086038e-06  -6.2793988e-05  -6.4741490e-05  -1.0918679e-06  -4.6187062e-05  -5.6955542e-05  -7.0119907e-05  -1.1880336e-04  -1.4789274e-04   6.4712306e-05   1.3794902e-05  -2.0852533e-05  -5.8736322e-05  -7.1392209e-05  -1.0652667e-04  -1.5294874e-04  -8.0770532e-04  -2.9166418e-05  -7.3540302e-04  -1.2515151e-03  -9.3212267e-04  -4.0823230e-04  -7.4232722e-04  -5.3154757e-04  -5.4728541e-04  -6.3511597e-04  -4.7056873e-04  -4.5394660e-04   2.9925947e-04  -4.9765355e-04  -4.8482479e-04  -2.8222772e-04  -3.3047612e-04  -6.1465000e-04  -5.1859922e-04  -6.4583425e-04  -5.3993640e-04  -3.3637169e-04  -3.1936695e-04  -2.1689096e-04  -5.2938752e-04  -4.3285254e-04  -4.7386463e-04  -2.0662485e-04   1.1848979e-04  -1.0478011e-04  -2.6712328e-04  -2.9569458e-04  -1.8317520e-04  -9.8716611e-05   2.6379421e-05  -4.3533444e-04   2.4756863e-05   5.9590348e-04
  -3.8311950e-05  -1.8282423e-05  -5.6795701e-05  -6.1227864e-05  -3.2722885e-05  -4.0133978e-05  -5.2408662e-05  -2.7707197e-05  -2.7775464e-05  -6.8791716e-05  -6.8009358e-05  -8.1645155e-05  -4.3043303e-05  -3.7848330e-05  -5.5121134e-05  -7.4078554e-05  -8.5141236e-05  -9.5358627e-05  -6.5477634e-05  -6.5927359e-05  -3.5796899e-05  -2.6124899e-05  -3.2413229e-05  -4.3361367e-05  -4.2449514e-05  -7.5920365e-05  -8.3692941e-05  -6.3671619e-05  -2.5675084e-05  -4.5360742e-05   3.7144241e-06  -4.4744840e-05  -9.3488456e-05  -5.5931308e-05  -6.3076985e-05  -5.7883684e-05  -6.2843262e-05  -3.8963155e-06   5.6355638e-06   1.1553954e-05  -2.8908968e-05  -9.1097312e-05  -5.6556953e-05   3.6310326e-06  -7.3978614e-05  -6.9201880e-05  -1.1858652e-05   3.8187225e-05   1.3816879e-05   3.5914801e-05  -6.0843065e-05  -1.1752625e-04  -3.0105264e-05   5.2916616e-07   2.8917234e-05   3.6941036e-05   4.5300617e-05   5.7559226e-05   5.0846286e-05   4.2837233e-06   9.3887322e-06   5.8801199e-05   5.2285260e-05  -2.8165075e-05  -9.1418713e-06   1.7137272e-05   7.2729563e-05  -7.2446431e-05  -1.0493150e-04  -3.4450139e-05   1.4597209e-05   3.1783423e-05   4.4568902e-05   9.3236326e-06  -3.1168242e-05   6.7297970e-05   9.2815955e-05   5.7348763e-05  -5.5680513e-05   1.3978520e-05   8.0579272e-06  -4.6899992e-05   9.2927071e-05  -1.2338698e-04  -2.8110008e-05   4.6238928e-05  -6.5665407e-05  -4.3058107e-05  -2.6070915e-05   4.5990702e-05  -6.2826931e-05  -8.9117600e-05  -1.8035133e-05  -5.2508043e-05  -5.9116093e-05  -1.2819137e-04   4.9391335e-05   6.6913689e-05  -3.3385001e-05   1.5465207e-04   6.6445203e-05  -3.7573177e-05  -3.1256814e-05   2.4248578e-05   3.5063550e-05   1.8929608e-04   2.2257631e-04  -1.7965830e-04  -1.7959180e-04  -4.0290857e-05   1.3634683e-05   3.2024322e-05   2.2744246e-05  -4.2739427e-05   3.5327863e-05   1.0761028e-05   1.9927940e-05   2.9074327e-05   4.4491421e-05   3.7405517e-05  -2.5256413e-05  -3.5073426e-05  -1.3646177e-07   8.6071466e-06   1.3041971e-05   3.4513491e-05   6.6884460e-06  -4.1318908e-05  -1.1125432e-05   2.8175629e-06   5.3115275e-06   1.9590775e-05   1.7789953e-05   4.4860862e-05   1.6391062e-05   1.4861010e-05   1.5294021e-05  -4.8045065e-06   1.0175009e-05   3.1303178e-05   3.2186622e-05   6.0009461e-07  -1.2800930e-05  -3.2143313e-05  -6.1049289e-05   2.0801419e-05   5.4584311e-05   2.4159210e-05  -3.5850786e-06   4.8361182e-06  -1.6454561e-05   2.9276110e-05  -8.8515746e-05  -5.0292596e-05  -3.1503440e-05  -1.3739308e-04  -5.9174473e-05  -3.2171047e-05   8.7732437e-06   8.4776925e-06  -1.5786493e-05  -7.6312884e-05  -7.4959711e-05  -4.2940516e-05  -2.5842089e-05   1.5591486e-05  -7.1350270e-05  -5.2104335e-05  -6.7079372e-05  -1.4789748e-04  -1.4996409e-04  -1.7613576e-04  -1.7257483e-04  -2.4353740e-05  -5.4560120e-05  -1.4532723e-04  -5.4715396e-05  -6.5085362e-05  -3.7730709e-05  -3.0781675e-05  -3.9022083e-05   4.0592662e-05   6.6398658e-05  -1.1730890e-04  -8.8151200e-05  -4.1628713e-05  -1.4369002e-05  -5.5617514e-06  -2.2281463e-05   5.4044408e-05  -7.0179423e-06  -2.9769002e-06  -5.2402837e-06  -1.8001943e-05  -1.0144491e-06   1.7466527e-06  -2.4060575e-05  -2.7342897e-05   2.1203471e-06   8.8801802e-06   2.6442647e-06   1.0398619e-05  -3.8897212e-05  -2.2778999e-05  -1.7325521e-07   4.8484233e-06  -1.0777842e-06  -4.5136330e-06  -6.2910050e-06  -3.8730619e-06  -1.5829125e-05   1.7320861e-06  -2.8796617e-06  -2.4684214e-05  -1.4489724e-05   1.3167711e-05   2.8079491e-05   8.8270340e-08  -1.1160401e-05  -2.0917158e-05  -5.1096342e-05  -1.5281793e-06   2.1947610e-05   4.8690024e-06  -6.2286622e-06  -2.7814560e-06  -2.1881066e-05  -3.8458860e-05   6.9519461e-05   4.8668500e-05   6.5890728e-05   1.1624020e-04   9.5865829e-05   4.8620331e-05   2.0247865e-05   7.6834398e-06   3.0009435e-05   6.4057823e-05   4.3702673e-05   6.0693291e-05  -7.3388092e-05   1.0179189e-05   7.8777447e-05   7.1889289e-05   4.9583247e-05   5.4282411e-05   6.0905434e-05   1.0703067e-04   8.2664475e-05   4.3428582e-05   5.1304245e-05   3.7644289e-05   3.0904747e-05   9.8179283e-05   9.6568058e-05   5.7946637e-05   2.3363392e-05   1.0180095e-05   9.1734051e-07   8.0815089e-05   1.1942583e-04   7.1484745e-05   6.4119939e-05   3.3072813e-05   2.4924674e-05   2.6122877e-06   1.0214594e-04   4.7307025e-05   1.1875545e-04   1.5025978e-04   9.4629885e-05   6.7873742e-05   7.8892987e-05   4.5203144e-05   7.2833203e-05   1.5953952e-04   1.0891329e-04   1.2279918e-04   8.2268569e-06   4.0736371e-05   1.1969309e-04   1.3375834e-04   9.5732068e-05   1.0103483e-04   8.2929706e-05   1.3645015e-04   1.0200529e-04   6.1921000e-05   6.2523524e-05   6.9536244e-05   8.9072107e-05   8.9837420e-05   9.2299199e-05   6.5701388e-05   4.6613186e-05   4.4063958e-05   4.6706549e-07   1.2389887e-04   1.1287355e-04   1.1947713e-04   8.7420846e-05   7.6776775e-05   1.0132077e-04   5.5993049e-05   2.6993220e-06  -2.1950243e-05  -1.4816420e-05  -1.6492344e-05   1.1187796e-05  -1.3935019e-05  -7.4917879e-05  -2.0476503e-05  -1.0917129e-05  -2.3329310e-05  -2.4114269e-05  -1.9484626e-05  -1.1001591e-04  -6.1527765e-05  -2.1830020e-05  -2.0400601e-05   8.1662972e-06   4.5920076e-05   9.0841421e-05   1.5469325e-04   1.1095401e-04  -2.5109903e-05  -4.1647463e-06  -6.6988822e-05  -6.8404440e-05  -2.4562811e-06  -4.9699514e-05  -5.9538845e-05  -7.3308152e-05  -1.2567389e-04  -1.5100383e-04   6.5937214e-05   1.5912069e-05  -1.8134476e-05  -5.9546611e-05  -7.3820542e-05  -1.0890908e-04  -1.5122884e-04  -8.6113807e-04  -4.6987014e-05  -7.5338754e-04  -1.2746817e-03  -9.5870673e-04  -4.1473471e-04  -7.9550480e-04  -5.2669552e-04  -5.8587978e-04  -6.8704577e-04  -4.8517364e-04  -4.6241887e-04   3.5321588e-04  -5.0684321e-04  -4.9184709e-04  -2.9507414e-04  -3.6322971e-04  -6.5054843e-04  -5.5220837e-04  -6.7463652e-04  -5.7685344e-04  -3.4480944e-04  -3.1870338e-04  -2.1590424e-04  -5.1705788e-04  -4.2822209e-04  -4.6466835e-04  -1.9353701e-04   1.2564832e-04  -7.8007705e-05  -2.1287131e-04  -2.9736853e-04  -1.6994338e-04  -9.5080080e-05   3.0883865e-05  -4.3966468e-04   5.4722327e-05   6.6540912e-04
  -4.2645244e-05  -2.0914992e-05  -5.9992097e-05  -6.7658823e-05  -3.6493043e-05  -4.4560936e-05  -5.4070729e-05  -2.9831777e-05  -2.8721491e-05  -7.3377071e-05  -7.5326661e-05  -8.8579416e-05  -4.1861381e-05  -3.8589564e-05  -6.0616333e-05  -8.0069809e-05  -9.2921958e-05  -1.0514983e-04  -7.4321716e-05  -7.5586405e-05  -4.3593430e-05  -2.9534271e-05  -3.5998119e-05  -5.1467394e-05  -4.5501512e-05  -8.3508131e-05  -9.0295677e-05  -6.7554597e-05  -2.7139811e-05  -4.4314851e-05   9.1495173e-06  -5.2945200e-05  -1.0073938e-04  -5.9506550e-05  -6.6089330e-05  -6.0025256e-05  -6.3489824e-05  -1.1113830e-07   1.1803757e-05   2.3434636e-05  -3.3236740e-05  -9.4360765e-05  -5.9799648e-05   9.9113287e-06  -5.9856840e-05  -7.8050818e-05  -9.5106743e-06   4.3105160e-05   2.1508984e-05   4.6848511e-05  -4.9684467e-05  -1.1373586e-04  -2.6667945e-05   4.4415259e-06   3.6006751e-05   4.5801047e-05   5.0111346e-05   6.1065238e-05   5.1537701e-05   5.1230750e-06   1.5637239e-05   8.4433840e-05   5.5321170e-05  -1.8135673e-05   4.0298032e-06   2.9189373e-05   9.0917906e-05  -7.5732295e-05  -9.5012151e-05  -3.3643432e-05   3.2080741e-05   4.9028487e-05   6.1792329e-05   2.3565046e-05  -1.4751521e-05   9.2780538e-05   8.9462269e-05   5.3676219e-05  -5.5903951e-05   1.2774487e-05   6.4708953e-06  -4.3654731e-05   1.0049626e-04  -1.2877103e-04  -3.1283428e-05   4.8494798e-05  -6.9540309e-05  -3.7909982e-05  -9.4769154e-06   4.9206676e-05  -6.9607061e-05  -8.8780185e-05  -2.0176811e-05  -5.6312758e-05  -6.4815263e-05  -1.2665743e-04   3.9056841e-05   6.6387696e-05  -2.8434876e-05   1.6043368e-04   6.4534485e-05  -2.3935792e-05  -1.5385717e-05   3.0164230e-05   3.4591413e-05   1.9676080e-04   2.3862454e-04  -1.8625303e-04  -1.7117505e-04  -3.3998143e-05   1.9196206e-05   3.5918346e-05   3.6029184e-05  -4.6195078e-05   3.8021281e-05   1.0657155e-05   2.4352593e-05   3.4777454e-05   4.8345004e-05   3.9418867e-05  -2.2067412e-05  -3.6344120e-05   6.0947028e-07   1.1390223e-05   1.3449876e-05   3.6685450e-05   7.4808421e-06  -4.2897377e-05  -8.6604829e-06   7.0312619e-06   9.1779262e-06   2.4037289e-05   2.1484003e-05   5.0147779e-05   1.9528837e-05   1.5678956e-05   1.6851315e-05  -1.5681099e-06   1.3318681e-05   3.4702730e-05   3.4197206e-05   2.0810675e-06  -1.3728912e-05  -3.2037460e-05  -6.2539504e-05   2.4648937e-05   5.8950944e-05   2.7274156e-05  -1.0810549e-06   5.9112044e-06  -1.2823197e-05   2.7571732e-05  -9.0246122e-05  -5.0924852e-05  -3.3644584e-05  -1.3720498e-04  -5.9457792e-05  -3.2337358e-05   1.0728590e-05   9.0570314e-06  -1.7379753e-05  -8.0341591e-05  -7.3687730e-05  -4.1901904e-05  -3.2469882e-05   1.4723316e-05  -7.1378742e-05  -5.2315965e-05  -6.6399291e-05  -1.4965608e-04  -1.5370990e-04  -1.8001296e-04  -1.7450400e-04  -2.7724783e-05  -5.5517003e-05  -1.5146789e-04  -6.0523384e-05  -6.2298038e-05  -3.2947121e-05  -3.0997105e-05  -4.2388247e-05   4.0556147e-05   6.1054796e-05  -1.1406211e-04  -8.3342279e-05  -4.1950309e-05  -1.4655594e-05  -4.5647538e-06  -2.2863024e-05   4.4283977e-05  -8.1465514e-06  -2.9795422e-06  -4.7242996e-06  -1.9239955e-05  -2.3602299e-06   1.7067938e-06  -2.6492085e-05  -2.9514128e-05   1.7044370e-06   1.0455712e-05   1.9625214e-06   1.1130659e-05  -4.0707094e-05  -2.4371112e-05   1.3121933e-06   6.3373866e-06   1.2402024e-06  -1.8657145e-06  -4.5135219e-06  -5.6956632e-07  -1.2474610e-05   2.0516902e-06  -2.4282832e-06  -2.2881657e-05  -1.3380074e-05   1.5587875e-05   2.9094904e-05   1.5607512e-06  -1.0663085e-05  -2.1532271e-05  -5.7493788e-05   1.0999863e-06   2.4906919e-05   5.2365049e-06  -5.1479206e-06  -3.8087857e-06  -1.8337624e-05  -4.6279049e-05   7.4661558e-05   5.0892705e-05   6.7736896e-05   1.2292966e-04   1.0217155e-04   5.1641495e-05   2.2337224e-05   1.0433546e-05   2.9561669e-05   6.3748103e-05   4.6084276e-05   6.3507805e-05  -8.5744050e-05   1.0164684e-05   8.5074423e-05   7.3108144e-05   5.3252655e-05   5.7971151e-05   6.7234996e-05   1.2051218e-04   9.5551392e-05   4.3184038e-05   5.3131000e-05   4.0936351e-05   3.2158668e-05   1.0248593e-04   9.8775292e-05   5.8793468e-05   2.3547513e-05   8.6487694e-06   1.9961579e-06   8.8512164e-05   1.2522367e-04   7.2377706e-05   6.4127278e-05   3.2186745e-05   2.4718754e-05  -2.3789644e-07   1.1148206e-04   5.0163900e-05   1.2576131e-04   1.6103050e-04   1.0218083e-04   7.1663757e-05   8.2808556e-05   4.8054057e-05   7.4565269e-05   1.6746909e-04   1.1578627e-04   1.3020326e-04   1.4327561e-05   4.2152087e-05   1.2884464e-04   1.3992545e-04   1.0401152e-04   1.0758442e-04   8.8953598e-05   1.4762116e-04   1.1281626e-04   6.5080757e-05   6.5880207e-05   7.4901928e-05   9.1873407e-05   9.4191123e-05   9.5927495e-05   6.7904071e-05   4.7309221e-05   4.3205993e-05   1.7378599e-06   1.3221981e-04   1.1756777e-04   1.2627123e-04   9.1933711e-05   7.9786216e-05   1.0411791e-04   5.8728754e-05  -2.5929311e-07  -2.6891946e-05  -2.0863290e-05  -2.5639247e-05   6.1850635e-06  -1.5552579e-05  -7.7198347e-05  -2.7219034e-05  -1.3688271e-05  -2.9697569e-05  -2.4516979e-05  -2.2189359e-05  -1.2577534e-04  -6.8670412e-05  -2.3908720e-05  -2.4938373e-05   5.4816710e-06   4.7427600e-05   9.2095576e-05   1.5984589e-04   1.1677513e-04  -2.9221989e-05  -5.6624650e-06  -6.9610532e-05  -7.0506393e-05  -2.7957664e-06  -5.1850878e-05  -6.0735060e-05  -7.4759991e-05  -1.3005798e-04  -1.5096265e-04   6.7205584e-05   1.8973237e-05  -1.4194481e-05  -5.8683532e-05  -7.4397421e-05  -1.0910008e-04  -1.4593830e-04  -9.0330541e-04  -6.6475128e-05  -7.5935208e-04  -1.2787532e-03  -9.7287022e-04  -4.1544624e-04  -8.3572289e-04  -5.0988185e-04  -6.1611699e-04  -7.2971256e-04  -4.9432629e-04  -4.6429203e-04   4.0414833e-04  -5.0873118e-04  -4.9085631e-04  -3.0304882e-04  -3.9173831e-04  -6.7941685e-04  -5.7982582e-04  -6.9670450e-04  -6.0862816e-04  -3.4945453e-04  -3.1306107e-04  -2.1270992e-04  -4.9572735e-04  -4.1873045e-04  -4.4953226e-04  -1.7731490e-04   1.2964250e-04  -4.6917029e-05  -1.4981101e-04  -2.9645041e-04  -1.5465910e-04  -9.1328145e-05   3.4681474e-05  -4.3708232e-04   8.5966649e-05   7.2742741e-04
  -4.6828260e-05  -2.3446021e-05  -6.2771754e-05  -7.3845503e-05  -4.0161160e-05  -4.8547883e-05  -5.5355281e-05  -3.1549018e-05  -2.9406815e-05  -7.7286866e-05  -8.1885293e-05  -9.4612553e-05  -4.0268281e-05  -3.8741329e-05  -6.5449665e-05  -8.5279625e-05  -9.9908187e-05  -1.1386503e-04  -8.2347660e-05  -8.4759147e-05  -5.1359264e-05  -3.2736692e-05  -3.9255212e-05  -5.9689447e-05  -4.8316238e-05  -9.0245266e-05  -9.5915489e-05  -7.0764945e-05  -2.8354251e-05  -4.2403360e-05   1.4776867e-05  -6.0707731e-05  -1.0689668e-04  -6.2638474e-05  -6.8405650e-05  -6.1518882e-05  -6.3576863e-05   3.5183299e-06   1.9541529e-05   3.8191631e-05  -3.6987561e-05  -9.5087884e-05  -6.1764048e-05   1.7461257e-05  -4.3963317e-05  -8.7048269e-05  -6.4716636e-06   4.8879337e-05   3.0832327e-05   5.9431997e-05  -3.6311814e-05  -1.0743457e-04  -2.2639163e-05   9.3898493e-06   4.4253312e-05   5.6339463e-05   5.6086459e-05   6.6037586e-05   5.3027445e-05   6.2012578e-06   2.3134986e-05   1.1430814e-04   5.8264233e-05  -5.7686713e-06   1.9386851e-05   4.3131458e-05   1.1082822e-04  -7.8601664e-05  -8.7388516e-05  -3.0479781e-05   5.1593391e-05   6.8496948e-05   8.0540761e-05   3.9723303e-05   5.0514620e-06   1.1897467e-04   8.5901015e-05   4.9100380e-05  -5.5989356e-05   1.1931138e-05   5.6704018e-06  -3.9406337e-05   1.0835278e-04  -1.3344951e-04  -3.3937713e-05   4.9647798e-05  -7.2781531e-05  -3.2130656e-05   1.0765468e-05   5.1214898e-05  -7.5802656e-05  -8.6404279e-05  -2.2877151e-05  -5.9964335e-05  -7.0770129e-05  -1.2332246e-04   2.7302866e-05   6.4632560e-05  -2.3180340e-05   1.6491718e-04   6.1709115e-05  -9.7876412e-06   5.0295906e-07   3.5261941e-05   3.2390364e-05   2.0013385e-04   2.4963463e-04  -1.8996154e-04  -1.6028670e-04  -2.8405820e-05   2.4508841e-05   3.8726371e-05   4.7967750e-05  -5.0911274e-05   4.0698092e-05   1.0659747e-05   2.8958590e-05   4.1018441e-05   5.1838560e-05   4.1174044e-05  -1.7995129e-05  -3.6817765e-05   1.5752784e-06   1.4765601e-05   1.4347155e-05   3.9067804e-05   9.0138543e-06  -4.3583750e-05  -5.7096295e-06   1.1762657e-05   1.3878946e-05   2.9131664e-05   2.5719530e-05   5.5673435e-05   2.3039683e-05   1.6434652e-05   1.8578252e-05   2.5832598e-06   1.6542048e-05   3.8216981e-05   3.6359277e-05   3.9718409e-06  -1.4147449e-05  -3.1384425e-05  -6.3236535e-05   2.8795623e-05   6.3167841e-05   3.0605078e-05   2.0034168e-06   7.2938755e-06  -8.7466909e-06   2.5801303e-05  -9.1605600e-05  -5.1741544e-05  -3.6223911e-05  -1.3688121e-04  -5.9789927e-05  -3.2776176e-05   1.2252539e-05   8.8215860e-06  -1.9236029e-05  -8.4713035e-05  -7.2400642e-05  -4.1250604e-05  -4.0269860e-05   1.2993291e-05  -7.1249699e-05  -5.2632238e-05  -6.5508223e-05  -1.4991390e-04  -1.5612890e-04  -1.8249526e-04  -1.7470604e-04  -3.1839141e-05  -5.6323856e-05  -1.5727685e-04  -6.6623980e-05  -5.9800213e-05  -2.8573774e-05  -3.1683436e-05  -4.6149084e-05   3.9229003e-05   5.3522723e-05  -1.0989326e-04  -7.7993663e-05  -4.2688911e-05  -1.5439134e-05  -4.1335171e-06  -2.3857160e-05   3.2673219e-05  -9.2772518e-06  -2.8194571e-06  -4.1414327e-06  -2.0030667e-05  -3.9947084e-06   1.8068130e-06  -2.8572290e-05  -3.0924369e-05   1.4959657e-06   1.2478323e-05   1.7245799e-06   1.2291914e-05  -4.1419663e-05  -2.5304266e-05   3.1660451e-06   8.1983386e-06   4.3894779e-06   1.3486271e-06  -2.2999800e-06   3.1525625e-06  -8.6470049e-06   2.4781349e-06  -1.6216889e-06  -2.0068218e-05  -1.1949543e-05   1.8336390e-05   3.0205036e-05   3.5105964e-06  -9.4054187e-06  -2.1798612e-05  -6.3675876e-05   3.9396536e-06   2.8041936e-05   5.8283319e-06  -3.4493656e-06  -4.4385505e-06  -1.3750628e-05  -5.3570120e-05   7.8836200e-05   5.2214109e-05   6.8540140e-05   1.2845164e-04   1.0719229e-04   5.3604974e-05   2.3970688e-05   1.2811396e-05   2.8556151e-05   6.2036607e-05   4.7629507e-05   6.4830424e-05  -9.9356980e-05   9.4881792e-06   9.0066725e-05   7.3016744e-05   5.6220992e-05   6.0841282e-05   7.2642394e-05   1.3236965e-04   1.0742104e-04   4.1966819e-05   5.3862990e-05   4.3315681e-05   3.2377921e-05   1.0485069e-04   9.9026271e-05   5.8526322e-05   2.3088564e-05   5.8994753e-06   2.3266765e-06   9.4785378e-05   1.2865985e-04   7.1447376e-05   6.2834036e-05   3.0097001e-05   2.3929896e-05  -3.4633976e-06   1.1940236e-04   5.2203742e-05   1.3154414e-04   1.6945119e-04   1.0827222e-04   7.3780110e-05   8.5365701e-05   4.9793268e-05   7.5246597e-05   1.7337080e-04   1.2053985e-04   1.3526215e-04   1.8533147e-05   4.2213954e-05   1.3581343e-04   1.4410804e-04   1.1082162e-04   1.1199862e-04   9.2882845e-05   1.5579994e-04   1.2161511e-04   6.6924601e-05   6.7754917e-05   7.8986722e-05   9.3385125e-05   9.5886146e-05   9.7117025e-05   6.8558098e-05   4.6693634e-05   4.0630791e-05   1.4707754e-06   1.3795982e-04   1.1948600e-04   1.3053374e-04   9.4679553e-05   8.0891877e-05   1.0481791e-04   5.9251139e-05  -3.2267899e-06  -3.1463850e-05  -2.6111520e-05  -3.4117024e-05   1.3095985e-06  -1.6584418e-05  -7.7530509e-05  -3.2688275e-05  -1.5892960e-05  -3.5354526e-05  -2.3716877e-05  -2.4027309e-05  -1.3853720e-04  -7.4133456e-05  -2.4770293e-05  -2.8773138e-05   3.2949510e-06   4.9340317e-05   9.2953830e-05   1.6442391e-04   1.2238847e-04  -3.2476680e-05  -6.4704726e-06  -7.0549259e-05  -7.0985776e-05  -1.9592613e-06  -5.2525765e-05  -6.0536371e-05  -7.4432140e-05  -1.3189369e-04  -1.4783551e-04   6.8681007e-05   2.3070133e-05  -9.1110723e-06  -5.6225401e-05  -7.3098676e-05  -1.0726665e-04  -1.3730942e-04  -9.3384916e-04  -8.7176712e-05  -7.5408461e-04  -1.2657811e-03  -9.7584141e-04  -4.1102873e-04  -8.6235691e-04  -4.8204099e-04  -6.3752739e-04  -7.6238440e-04  -4.9857447e-04  -4.6020780e-04   4.5067697e-04  -5.0411915e-04  -4.8258181e-04  -3.0609400e-04  -4.1521241e-04  -7.0131060e-04  -6.0144759e-04  -7.1257885e-04  -6.3508231e-04  -3.5084158e-04  -3.0317589e-04  -2.0802667e-04  -4.6725309e-04  -4.0566912e-04  -4.2994938e-04  -1.5898534e-04   1.3048555e-04  -1.2701052e-05  -8.0365004e-05  -2.9347693e-04  -1.3815416e-04  -8.7590078e-05   3.7876464e-05  -4.2815925e-04   1.1759597e-04   7.8183081e-04
  -5.0783885e-05  -2.5817718e-05  -6.5158816e-05  -7.9649888e-05  -4.3629919e-05  -5.1984148e-05  -5.6309815e-05  -3.2854547e-05  -2.9857265e-05  -8.0532785e-05  -8.7539796e-05  -9.9635673e-05  -3.8509305e-05  -3.8378324e-05  -6.9531458e-05  -8.9637597e-05  -1.0599744e-04  -1.2132555e-04  -8.9350495e-05  -9.3227826e-05  -5.8908591e-05  -3.5697106e-05  -4.2128372e-05  -6.7905508e-05  -5.0939534e-05  -9.5972953e-05  -1.0045130e-04  -7.3310132e-05  -2.9366126e-05  -3.9800755e-05   2.0345937e-05  -6.7804345e-05  -1.1183672e-04  -6.5295457e-05  -7.0042195e-05  -6.2408242e-05  -6.3242527e-05   6.7970698e-06   2.8814003e-05   5.5657264e-05  -3.9832850e-05  -9.3098478e-05  -6.2209886e-05   2.6177998e-05  -2.7169778e-05  -9.5987016e-05  -2.7523475e-06   5.5595736e-05   4.1649907e-05   7.3469634e-05  -2.1290061e-05  -9.8900380e-05  -1.8250172e-05   1.5395355e-05   5.3514723e-05   6.8378093e-05   6.3239122e-05   7.2548205e-05   5.5429362e-05   7.6552731e-06   3.1730325e-05   1.4795731e-04   6.1426592e-05   8.5450138e-06   3.6433820e-05   5.8653742e-05   1.3200479e-04  -8.0969975e-05  -8.2853469e-05  -2.4948837e-05   7.2491363e-05   8.9705839e-05   1.0029423e-04   5.7349268e-05   2.7806657e-05   1.4546998e-04   8.2445205e-05   4.3827942e-05  -5.6196335e-05   1.1082187e-05   5.5056013e-06  -3.4432698e-05   1.1630827e-04  -1.3739106e-04  -3.5849187e-05   4.9710769e-05  -7.5426615e-05  -2.5948222e-05   3.2839341e-05   5.1962095e-05  -8.1303891e-05  -8.2025506e-05  -2.6043968e-05  -6.3258882e-05  -7.6820022e-05  -1.1888559e-04   1.4097905e-05   6.1594520e-05  -1.8110533e-05   1.6805533e-04   5.7991559e-05   4.0466245e-06   1.5451108e-05   3.9154447e-05   2.8579246e-05   1.9943134e-04   2.5480612e-04  -1.9124671e-04  -1.4768711e-04  -2.4032409e-05   2.9230632e-05   4.0379344e-05   5.7892854e-05  -5.7113937e-05   4.3319202e-05   1.0782229e-05   3.3597317e-05   4.7612036e-05   5.4881871e-05   4.2632994e-05  -1.3275250e-05  -3.6534389e-05   2.6963596e-06   1.8595263e-05   1.5744401e-05   4.1618152e-05   1.1245975e-05  -4.3465924e-05  -2.4285118e-06   1.6818108e-05   1.9264783e-05   3.4768449e-05   3.0425072e-05   6.1363266e-05   2.6860284e-05   1.7088350e-05   2.0419781e-05   7.4776348e-06   1.9701447e-05   4.1702207e-05   3.8600051e-05   6.1603843e-06  -1.4089916e-05  -3.0349089e-05  -6.3400330e-05   3.3146672e-05   6.7101321e-05   3.4009209e-05   5.5012336e-06   8.8878800e-06  -4.5878263e-06   2.3994521e-05  -9.2732661e-05  -5.2923869e-05  -3.9270986e-05  -1.3678547e-04  -6.0344368e-05  -3.3577373e-05   1.3367473e-05   7.7602666e-06  -2.1334211e-05  -8.9496150e-05  -7.1282435e-05  -4.1144079e-05  -4.8945608e-05   1.0450343e-05  -7.1091703e-05  -5.3132691e-05  -6.4529378e-05  -1.4882712e-04  -1.5736357e-04  -1.8377614e-04  -1.7343872e-04  -3.6659680e-05  -5.7064858e-05  -1.6279993e-04  -7.2888861e-05  -5.7830506e-05  -2.4833748e-05  -3.2841837e-05  -5.0249707e-05   3.6633519e-05   4.4062166e-05  -1.0519415e-04  -7.2431025e-05  -4.3934586e-05  -1.6731118e-05  -4.3327503e-06  -2.5347820e-05   1.9718220e-05  -1.0354009e-05  -2.4681296e-06  -3.5393894e-06  -2.0362726e-05  -5.8679640e-06   2.0765894e-06  -3.0343539e-05  -3.1531477e-05   1.5185138e-06   1.4925379e-05   2.0198404e-06   1.3925225e-05  -4.1073584e-05  -2.5584865e-05   5.3331121e-06   1.0386252e-05   8.3381652e-06   5.0817891e-06   3.4963994e-07   7.3222545e-06  -4.3718707e-06   3.0272444e-06  -4.3559322e-07  -1.6278035e-05  -1.0288423e-05   2.1392850e-05   3.1458160e-05   5.8944351e-06  -7.3813816e-06  -2.1829040e-05  -6.9691187e-05   6.9709286e-06   3.1334415e-05   6.6734599e-06  -1.1769628e-06  -4.6106662e-06  -8.3721552e-06  -6.0091681e-05   8.1893165e-05   5.2568846e-05   6.8294538e-05   1.3267800e-04   1.1077089e-04   5.4374346e-05   2.5073417e-05   1.4645610e-05   2.7027902e-05   5.8959128e-05   4.8223459e-05   6.4529835e-05  -1.1386586e-04   8.1263649e-06   9.3507035e-05   7.1580570e-05   5.8380242e-05   6.2742306e-05   7.6881651e-05   1.4216529e-04   1.1787101e-04   3.9797861e-05   5.3457876e-05   4.4687227e-05   3.1479142e-05   1.0514188e-04   9.7271605e-05   5.7185116e-05   2.1991574e-05   1.8981347e-06   1.7124447e-06   9.9319367e-05   1.2952403e-04   6.8628745e-05   6.0270947e-05   2.6783794e-05   2.2493038e-05  -7.0339215e-06   1.2558607e-04   5.3294740e-05   1.3595965e-04   1.7513114e-04   1.1260762e-04   7.4037935e-05   8.6501259e-05   5.0292630e-05   7.4853011e-05   1.7708148e-04   1.2292875e-04   1.3771179e-04   2.0531820e-05   4.0842097e-05   1.4027212e-04   1.4617699e-04   1.1591015e-04   1.1400965e-04   9.4407076e-05   1.6043322e-04   1.2791810e-04   6.7322148e-05   6.7968719e-05   8.1630413e-05   9.3580565e-05   9.4617838e-05   9.5664362e-05   6.7589554e-05   4.4754470e-05   3.6344368e-05  -5.8041588e-07   1.4074169e-04   1.1834904e-04   1.3192619e-04   9.5506302e-05   7.9925845e-05   1.0326244e-04   5.7328644e-05  -6.0336658e-06  -3.5507544e-05  -3.0355304e-05  -4.1575605e-05  -3.1639360e-06  -1.6928607e-05  -7.6020886e-05  -3.6552285e-05  -1.7415558e-05  -4.0125260e-05  -2.1659398e-05  -2.4864517e-05  -1.4787458e-04  -7.7787694e-05  -2.4374252e-05  -3.1797593e-05   1.6877715e-06   5.1807023e-05   9.3644349e-05   1.6872285e-04   1.2792081e-04  -3.4742559e-05  -6.4960903e-06  -6.9778327e-05  -6.9857318e-05   1.4271585e-07  -5.1676312e-05  -5.9002599e-05  -7.2366595e-05  -1.3123717e-04  -1.4183713e-04   7.0495003e-05   2.8243555e-05  -3.0178765e-06  -5.2338923e-05  -6.9979103e-05  -1.0366572e-04  -1.2571865e-04  -9.5299266e-04  -1.0859246e-04  -7.3889779e-04  -1.2386100e-03  -9.6932808e-04  -4.0238255e-04  -8.7550953e-04  -4.4464907e-04  -6.5010699e-04  -7.8490279e-04  -4.9866942e-04  -4.5109537e-04   4.9168098e-04  -4.9411456e-04  -4.6809351e-04  -3.0440652e-04  -4.3314031e-04  -7.1659084e-04  -6.1736621e-04  -7.2305413e-04  -6.5625052e-04  -3.4963860e-04  -2.8997669e-04  -2.0263638e-04  -4.3381935e-04  -3.9044781e-04  -4.0757601e-04  -1.3965872e-04   1.2835528e-04   2.3291975e-05  -7.2554249e-06  -2.8901263e-04  -1.2126798e-04  -8.3993165e-05   4.0606228e-05  -4.1375434e-04   1.4871862e-04   8.2903906e-04
  -5.4439177e-05  -2.7980297e-05  -6.7186145e-05  -8.4940992e-05  -4.6803104e-05  -5.4781310e-05  -5.6988057e-05  -3.3766868e-05  -3.0105301e-05  -8.3150112e-05  -9.2187123e-05  -1.0357852e-04  -3.6838210e-05  -3.7603742e-05  -7.2807196e-05  -9.3105236e-05  -1.1112200e-04  -1.2740954e-04  -9.5176630e-05  -1.0080465e-04  -6.6063459e-05  -3.8395043e-05  -4.4577052e-05  -7.5998891e-05  -5.3425966e-05  -1.0057045e-04  -1.0384384e-04  -7.5223085e-05  -3.0240957e-05  -3.6718082e-05   2.5604740e-05  -7.4035536e-05  -1.1547673e-04  -6.7449017e-05  -7.1036396e-05  -6.2755476e-05  -6.2626560e-05   9.5525852e-06   3.9533358e-05   7.5530824e-05  -4.1436034e-05  -8.8301580e-05  -6.0936156e-05   3.5909443e-05  -1.0385687e-05  -1.0463698e-04   1.6344921e-06   6.3335803e-05   5.3754681e-05   8.8703861e-05  -5.2433774e-06  -8.8496106e-05  -1.3722037e-05   2.2478681e-05   6.3602967e-05   8.1651405e-05   7.1522699e-05   8.0571391e-05   5.8798727e-05   9.6329198e-06   4.1213998e-05   1.8473293e-04   6.5181128e-05   2.4321112e-05   5.4582097e-05   7.5371162e-05   1.5392031e-04  -8.2699093e-05  -8.1863968e-05  -1.7153450e-05   9.4055445e-05   1.1209410e-04   1.2049152e-04   7.5922225e-05   5.2939154e-05   1.7196534e-04   7.9335672e-05   3.8093482e-05  -5.6755514e-05   9.7573293e-06   5.6868527e-06  -2.9053295e-05   1.2401182e-04  -1.4055478e-04  -3.6796894e-05   4.8826409e-05  -7.7534824e-05  -1.9557471e-05   5.4419046e-05   5.1470270e-05  -8.6007608e-05  -7.5737710e-05  -2.9447021e-05  -6.5919729e-05  -8.2722948e-05  -1.1410959e-04  -5.7473274e-07   5.7270833e-05  -1.3699927e-05   1.6986611e-04   5.3426183e-05   1.6777251e-05   2.8566604e-05   4.1526009e-05   2.3441380e-05   1.9493676e-04   2.5356219e-04  -1.9074442e-04  -1.3418114e-04  -2.1263995e-05   3.3069187e-05   4.0917973e-05   6.5293406e-05  -6.4933572e-05   4.5828655e-05   1.1015639e-05   3.8104327e-05   5.4325547e-05   5.7390726e-05   4.3754439e-05  -8.1988088e-06  -3.5589903e-05   3.8891895e-06   2.2693792e-05   1.7603621e-05   4.4258072e-05   1.4054367e-05  -4.2700608e-05   9.9436734e-07   2.1968873e-05   2.5129146e-05   4.0792482e-05   3.5488667e-05   6.7109518e-05   3.0894896e-05   1.7591575e-05   2.2294966e-05   1.2880591e-05   2.2647274e-05   4.4984233e-05   4.0809710e-05   8.4983099e-06  -1.3631754e-05  -2.9140922e-05  -6.3365477e-05   3.7576980e-05   7.0588493e-05   3.7308623e-05   9.2006984e-06   1.0558433e-05  -7.4699465e-07   2.2140837e-05  -9.3765322e-05  -5.4622443e-05  -4.2773609e-05  -1.3720450e-04  -6.1261880e-05  -3.4798418e-05   1.4139999e-05   5.9242067e-06  -2.3626009e-05  -9.4716614e-05  -7.0480045e-05  -4.1691006e-05  -5.8129482e-05   7.2059194e-06  -7.1006666e-05  -5.3861761e-05  -6.3559986e-05  -1.4658420e-04  -1.5758119e-04  -1.8404987e-04  -1.7097643e-04  -4.2096745e-05  -5.7809120e-05  -1.6803326e-04  -7.9147427e-05  -5.6561799e-05  -2.1881791e-05  -3.4414322e-05  -5.4588586e-05   3.2870545e-05   3.3044639e-05  -1.0034202e-04  -6.6950255e-05  -4.5731274e-05  -1.8499450e-05  -5.1788818e-06  -2.7379522e-05   5.9875963e-06  -1.1323435e-05  -1.9087484e-06  -2.9658535e-06  -2.0265756e-05  -7.9155162e-06   2.5338038e-06  -3.1888804e-05  -3.1345731e-05   1.7773449e-06   1.7742545e-05   2.9029792e-06   1.6039440e-05  -3.9783798e-05  -2.5272799e-05   7.7312432e-06   1.2823017e-05   1.3001858e-05   9.2557346e-06   3.4157334e-06   1.1964363e-05   3.2210000e-07   3.7096651e-06   1.1324575e-06  -1.1597886e-05  -8.4961320e-06   2.4712214e-05   3.2881172e-05   8.6373398e-06  -4.6308077e-06  -2.1759027e-05  -7.5624412e-05   1.0170318e-05   3.4747622e-05   7.7827885e-06   1.5841498e-06  -4.2960310e-06  -2.5140429e-06  -6.5654259e-05   8.3718232e-05   5.1930357e-05   6.7035876e-05   1.3551281e-04   1.1279965e-04   5.3857802e-05   2.5601733e-05   1.5785773e-05   2.5028554e-05   5.4608786e-05   4.7787835e-05   6.2543463e-05  -1.2881269e-04   6.0980893e-06   9.5205627e-05   6.8815608e-05   5.9649692e-05   6.3552679e-05   7.9740757e-05   1.4953308e-04   1.2655423e-04   3.6740028e-05   5.1923201e-05   4.5012292e-05   2.9442131e-05   1.0331531e-04   9.3549095e-05   5.4862680e-05   2.0300939e-05  -3.3015144e-06   1.4481733e-08   1.0186042e-04   1.2771535e-04   6.3935646e-05   5.6522582e-05   2.2293266e-05   2.0377445e-05  -1.0898554e-05   1.2977383e-04   5.3334773e-05   1.3889367e-04   1.7777927e-04   1.1494793e-04   7.2330964e-05   8.6210528e-05   4.9473920e-05   7.3387947e-05   1.7850281e-04   1.2280269e-04   1.3738853e-04   2.0152246e-05   3.8028782e-05   1.4199005e-04   1.4607294e-04   1.1908779e-04   1.1343693e-04   9.3308886e-05   1.6110144e-04   1.3132753e-04   6.6200624e-05   6.6411674e-05   8.2747609e-05   9.2473930e-05   9.0212841e-05   9.1483387e-05   6.4998230e-05   4.1548228e-05   3.0433024e-05  -4.5502691e-06   1.4029426e-04   1.1399695e-04   1.3023042e-04   9.4343332e-05   7.6809563e-05   9.9377033e-05   5.2867623e-05  -8.5105496e-06  -3.8894521e-05  -3.3449994e-05  -4.7729805e-05  -6.9800679e-06  -1.6508717e-05  -7.2888569e-05  -3.8565092e-05  -1.8173917e-05  -4.3884484e-05  -1.8343474e-05  -2.4608227e-05  -1.5357787e-04  -7.9618041e-05  -2.2757527e-05  -3.3949841e-05   7.0696594e-07   5.4957836e-05   9.4399182e-05   1.7304095e-04   1.3349002e-04  -3.5939096e-05  -5.6882244e-06  -6.7342930e-05  -6.7203974e-05   3.5318257e-06  -4.9323171e-05  -5.6251973e-05  -6.8683835e-05  -1.2826073e-04  -1.3331869e-04   7.2738692e-05   3.4476838e-05   3.8997352e-06  -4.7262752e-05  -6.5172778e-05  -9.8623419e-05  -1.1167176e-04  -9.6150580e-04  -1.3021802e-04  -7.1555866e-04  -1.2006782e-03  -9.5539902e-04  -3.9059184e-04  -8.7598660e-04  -3.9965299e-04  -6.5430354e-04  -7.9766354e-04  -4.9552528e-04  -4.3811331e-04   5.2631940e-04  -4.8005188e-04  -4.4874237e-04  -2.9842671e-04  -4.4530631e-04  -7.2589952e-04  -6.2813943e-04  -7.2913179e-04  -6.7237057e-04  -3.4660928e-04  -2.7453058e-04  -1.9734204e-04  -3.9780720e-04  -3.7450978e-04  -3.8414348e-04  -1.2046513e-04   1.2355173e-04   5.9631061e-05   6.6607838e-05  -2.8363035e-04  -1.0482758e-04  -8.0698255e-05   4.2993201e-05  -3.9497057e-04   1.7847218e-04   8.6987802e-04
  -5.7729396e-05  -2.9893206e-05  -6.8889895e-05  -8.9602380e-05  -4.9589271e-05  -5.6876091e-05  -5.7444427e-05  -3.4324859e-05  -3.0186051e-05  -8.5191223e-05  -9.5768229e-05  -1.0640839e-04  -3.5499012e-05  -3.6541508e-05  -7.5256172e-05  -9.5673349e-05  -1.1524686e-04  -1.3205282e-04  -9.9727598e-05  -1.0733133e-04  -7.2656168e-05  -4.0825147e-05  -4.6576654e-05  -8.3862889e-05  -5.5831008e-05  -1.0395766e-04  -1.0607410e-04  -7.6559546e-05  -3.1053952e-05  -3.3388643e-05   3.0312192e-05  -7.9237870e-05  -1.1777294e-04  -6.9073149e-05  -7.1442456e-05  -6.2637805e-05  -6.1860103e-05   1.1643085e-05   5.1567985e-05   9.7391397e-05  -4.1479757e-05  -8.0692756e-05  -5.7798385e-05   4.6456484e-05   5.5065901e-06  -1.1275372e-04   6.6753319e-06   7.2166990e-05   6.6882993e-05   1.0481779e-04   1.1186394e-05  -7.6649359e-05  -9.2485656e-06   3.0660687e-05   7.4302528e-05   9.5818064e-05   8.0829319e-05   8.9988571e-05   6.3130753e-05   1.2280091e-05   5.1328809e-05   2.2383585e-04   6.9936306e-05   4.1007011e-05   7.3183313e-05   9.2850095e-05   1.7600397e-04  -8.3598373e-05  -8.4501805e-05  -7.2993489e-06   1.1553438e-04   1.3505135e-04   1.4056177e-04   9.4882401e-05   7.9750439e-05   1.9828227e-04   7.6721049e-05   3.2142021e-05  -5.7855443e-05   7.4161953e-06   5.8066004e-06  -2.3607588e-05   1.3094222e-04  -1.4291248e-04  -3.6577969e-05   4.7261691e-05  -7.9163296e-05  -1.3088175e-05   7.2820233e-05   4.9833732e-05  -8.9826773e-05  -6.7679515e-05  -3.2717651e-05  -6.7619916e-05  -8.8168813e-05  -1.0976125e-04  -1.6691957e-05   5.1707891e-05  -1.0372210e-05   1.7043950e-04   4.8091447e-05   2.7715460e-05   3.9078005e-05   4.2141999e-05   1.7423158e-05   1.8718387e-04   2.4560119e-04  -1.8921288e-04  -1.2057031e-04  -2.0310437e-05   3.5790286e-05   4.0489615e-05   6.9856712e-05  -7.4403580e-05   4.8153637e-05   1.1324668e-05   4.2310003e-05   6.0889691e-05   5.9288011e-05   4.4495052e-05  -3.0978096e-06  -3.4131741e-05   5.0531443e-06   2.6840539e-05   1.9843236e-05   4.6880240e-05   1.7243370e-05  -4.1502784e-05   4.3471130e-06   2.6962685e-05   3.1219156e-05   4.7003327e-05   4.0759176e-05   7.2771465e-05   3.5014097e-05   1.7890549e-05   2.4102539e-05   1.8507481e-05   2.5235380e-05   4.7867772e-05   4.2848267e-05   1.0814325e-05  -1.2885352e-05  -2.7998843e-05  -6.3511576e-05   4.1930917e-05   7.3447881e-05   4.0299082e-05   1.2858235e-05   1.2139818e-05   2.3640616e-06   2.0190684e-05  -9.4826372e-05  -5.6945585e-05  -4.6687903e-05  -1.3833552e-04  -6.2643389e-05  -3.6456484e-05   1.4680474e-05   3.4300132e-06  -2.6038708e-05  -1.0035634e-04  -7.0082604e-05  -4.2942796e-05  -6.7391668e-05   3.4245360e-06  -7.1063708e-05  -5.4822015e-05  -6.2672498e-05  -1.4338752e-04  -1.5695758e-04  -1.8349720e-04  -1.6759122e-04  -4.8002259e-05  -5.8604739e-05  -1.7292828e-04  -8.5200073e-05  -5.6080503e-05  -1.9795286e-05  -3.6287697e-05  -5.9014580e-05   2.8118422e-05   2.0921081e-05  -9.5674867e-05  -6.1804319e-05  -4.8078398e-05  -2.0666454e-05  -6.6392239e-06  -2.9947070e-05  -7.9246410e-06  -1.2141044e-05  -1.1402733e-06  -2.4654937e-06  -1.9806429e-05  -1.0063310e-05   3.1814238e-06  -3.3324233e-05  -3.0429484e-05   2.2565842e-06   2.0846192e-05   4.3864401e-06   1.8608547e-05  -3.7736905e-05  -2.4478363e-05   1.0255088e-05   1.5405187e-05   1.8244590e-05   1.3762752e-05   6.8566309e-06   1.7088903e-05   5.4013884e-06   4.5276957e-06   3.0618947e-06  -6.1655768e-06  -6.6737218e-06   2.8227038e-05   3.4476091e-05   1.1638080e-05  -1.2404398e-06  -2.1731129e-05  -8.1578671e-05   1.3507213e-05   3.8225285e-05   9.1458775e-06   4.7104684e-06  -3.4995999e-06   3.4752609e-06  -7.0129964e-05   8.4243003e-05   5.0315494e-05   6.4837886e-05   1.3689604e-04   1.1322620e-04   5.2020306e-05   2.5546079e-05   1.6115444e-05   2.2626304e-05   4.9133549e-05   4.6291986e-05   5.8891517e-05  -1.4366099e-04   3.4658495e-06   9.5045995e-05   6.4788734e-05   5.9984757e-05   6.3188694e-05   8.1060266e-05   1.5420391e-04   1.3318361e-04   3.2895415e-05   4.9316772e-05   4.4314367e-05   2.6312547e-05   9.9422729e-05   8.7987658e-05   5.1699762e-05   1.8094999e-05  -9.5525622e-06  -2.8286878e-06   1.0223137e-04   1.2324669e-04   5.7466242e-05   5.1722256e-05   1.6736980e-05   1.7592659e-05  -1.4984245e-05   1.3177608e-04   5.2256944e-05   1.4027236e-04   1.7722524e-04   1.1512951e-04   6.8637114e-05   8.4545916e-05   4.7309075e-05   7.0892802e-05   1.7760677e-04   1.2012376e-04   1.3424481e-04   1.7375731e-05   3.3840373e-05   1.4084508e-04   1.4380667e-04   1.2024172e-04   1.1020393e-04   8.9475818e-05   1.5754567e-04   1.3155775e-04   6.3552180e-05   6.3048830e-05   8.2330357e-05   9.0124524e-05   8.2637604e-05   8.4617599e-05   6.0861259e-05   3.7197263e-05   2.3066884e-05  -1.0440127e-05   1.3646722e-04   1.0640565e-04   1.2536480e-04   9.1212471e-05   7.1565234e-05   9.3185218e-05   4.5923390e-05  -1.0491748e-05  -4.1527345e-05  -3.5320405e-05  -5.2359955e-05  -9.9157747e-06  -1.5270478e-05  -6.8446733e-05  -3.8590200e-05  -1.8120164e-05  -4.6555484e-05  -1.3819388e-05  -2.3212407e-05  -1.5566796e-04  -7.9720298e-05  -2.0029574e-05  -3.5211240e-05   3.6717145e-07   5.8888090e-05   9.5443535e-05   1.7765874e-04   1.3920945e-04  -3.6038336e-05  -4.0361763e-06  -6.3368727e-05  -6.3170270e-05   8.1701204e-06  -4.5550213e-05  -5.2451973e-05  -6.3575403e-05  -1.2324047e-04  -1.2274664e-04   7.5459561e-05   4.1702930e-05   1.1417340e-05  -4.1291331e-05  -5.8881713e-05  -9.2512511e-05  -9.5773716e-05  -9.6063928e-04  -1.5156509e-04  -6.8618332e-04  -1.1558247e-03  -9.3635184e-04  -3.7686620e-04  -8.6523476e-04  -3.4936741e-04  -6.5099605e-04  -8.0159524e-04  -4.9017322e-04  -4.2260618e-04   5.5405677e-04  -4.6342261e-04  -4.2609549e-04  -2.8882902e-04  -4.5182055e-04  -7.3010686e-04  -6.3455248e-04  -7.3195595e-04  -6.8385968e-04  -3.4257593e-04  -2.5798718e-04  -1.9293057e-04  -3.6164806e-04  -3.5926008e-04  -3.6139011e-04  -1.0250351e-04   1.1645274e-04   9.4875756e-05   1.3828149e-04  -2.7789829e-04  -8.9624095e-05  -7.7951581e-05   4.5107721e-05  -3.7310687e-04   2.0603820e-04   9.0539822e-04
  -6.0598761e-05  -3.1526622e-05  -7.0305229e-05  -9.3536818e-05  -5.1908473e-05  -5.8232127e-05  -5.7733210e-05  -3.4582705e-05  -3.0135293e-05  -8.6717607e-05  -9.8267638e-05  -1.0812668e-04  -3.4711778e-05  -3.5326911e-05  -7.6890562e-05  -9.7359507e-05  -1.1836409e-04  -1.3524527e-04  -1.0296080e-04  -1.1268406e-04  -7.8535695e-05  -4.2992991e-05  -4.8115437e-05  -9.1399188e-05  -5.8204546e-05  -1.0609584e-04  -1.0716079e-04  -7.7389607e-05  -3.1884091e-05  -3.0052550e-05   3.4250684e-05  -8.3289218e-05  -1.1871924e-04  -7.0144044e-05  -7.1324556e-05  -6.2138498e-05  -6.1057281e-05   1.2965563e-05   6.4738767e-05   1.2071994e-04  -3.9685057e-05  -7.0363603e-05  -5.2722547e-05   5.7582259e-05   1.9710198e-05  -1.2009392e-04   1.2348091e-05   8.2138461e-05   8.0723646e-05   1.2145443e-04   2.7377257e-05  -6.3832043e-05  -4.9794907e-06   3.9960499e-05   8.5378887e-05   1.1047991e-04   9.1001932e-05   1.0059090e-04   6.8368885e-05   1.5725753e-05   6.1782494e-05   2.6434797e-04   7.6107276e-05   5.8013366e-05   9.1566603e-05   1.1062592e-04   1.9767303e-04  -8.3434683e-05  -9.0463170e-05   4.3153741e-06   1.3618274e-04   1.5794967e-04   1.5995544e-04   1.1365908e-04   1.0744678e-04   2.2435084e-04   7.4645378e-05   2.6225824e-05  -5.9633003e-05   3.4856794e-06   5.3599730e-06  -1.8437147e-05   1.3639578e-04  -1.4443939e-04  -3.5032487e-05   4.5405536e-05  -8.0372080e-05  -6.6163501e-06   8.5151526e-05   4.7217036e-05  -9.2679036e-05  -5.8026807e-05  -3.5347626e-05  -6.7992052e-05  -9.2793688e-05  -1.0655776e-04  -3.4180140e-05   4.5010983e-05  -8.4615143e-06   1.6993005e-04   4.2095079e-05   3.6329452e-05   4.6396906e-05   4.0887013e-05   1.1102403e-05   1.7692475e-04   2.3089823e-04  -1.8746442e-04  -1.0759148e-04  -2.1187837e-05   3.7252921e-05   3.9340112e-05   7.1495898e-05  -8.5458510e-05   5.0209293e-05   1.1652784e-05   4.6047228e-05   6.7015344e-05   6.0507098e-05   4.4813435e-05   1.6760935e-06  -3.2348369e-05   6.0801194e-06   3.0795657e-05   2.2341557e-05   4.9353818e-05   2.0556038e-05  -4.0130451e-05   7.4053519e-06   3.1538524e-05   3.7250100e-05   5.3165657e-05   4.6053677e-05   7.8176222e-05   3.9057675e-05   1.7929017e-05   2.5727226e-05   2.4041937e-05   2.7334776e-05   5.0148318e-05   4.4555049e-05   1.2924166e-05  -1.1988727e-05  -2.7171928e-05  -6.4230840e-05   4.6030038e-05   7.5487593e-05   4.2764972e-05   1.6213943e-05   1.3448598e-05   4.3524451e-06   1.8061565e-05  -9.6015810e-05  -5.9946015e-05  -5.0926368e-05  -1.4026576e-04  -6.4540097e-05  -3.8529005e-05   1.5129990e-05   4.5099258e-07  -2.8476866e-05  -1.0635160e-04  -7.0125011e-05  -4.4887850e-05  -7.6284249e-05  -6.7838448e-07  -7.1296126e-05  -5.5978150e-05  -6.1914404e-05  -1.3944342e-04  -1.5566092e-04  -1.8226085e-04  -1.6353670e-04  -5.4191959e-05  -5.9471541e-05  -1.7738308e-04  -9.0820593e-05  -5.6384612e-05  -1.8577397e-05  -3.8306268e-05  -6.3333662e-05   2.2625902e-05   8.2032452e-06  -9.1468675e-05  -5.7190401e-05  -5.0929461e-05  -2.3119007e-05  -8.6314648e-06  -3.2992849e-05  -2.1436189e-05  -1.2774741e-05  -1.8006128e-07  -2.0785436e-06  -1.9084697e-05  -1.2233089e-05   4.0065437e-06  -3.4787844e-05  -2.8891416e-05   2.9223684e-06   2.4128218e-05   6.4399240e-06   2.1571740e-05  -3.5177560e-05  -2.3353492e-05   1.2781563e-05   1.8006686e-05   2.3886031e-05   1.8466333e-05   1.0607192e-05   2.2685837e-05   1.0822781e-05   5.4765509e-06   5.3085136e-06  -1.6522239e-07  -4.9177331e-06   3.1846265e-05   3.6218486e-05   1.4774532e-05   2.6610039e-06  -2.1881315e-05  -8.7664264e-05   1.6940615e-05   4.1689392e-05   1.0730382e-05   8.0470603e-06  -2.2619268e-06   9.2331376e-06  -7.3460422e-05   8.3447314e-05   4.7781539e-05   6.1812231e-05   1.3680825e-04   1.1205657e-04   4.8887725e-05   2.4937603e-05   1.5561477e-05   1.9900897e-05   4.2731500e-05   4.3757921e-05   5.3674634e-05  -1.5782707e-04   3.3695382e-07   9.2995351e-05   5.9616899e-05   5.9377058e-05   6.1614415e-05   8.0737582e-05   1.5600922e-04   1.3754974e-04   2.8401618e-05   4.5743686e-05   4.2672212e-05   2.2205889e-05   9.3610718e-05   8.0800924e-05   4.7880465e-05   1.5486937e-05  -1.6619755e-05  -6.7909689e-06   1.0034307e-04   1.1624499e-04   4.9399720e-05   4.6050308e-05   1.0290241e-05   1.4194318e-05  -1.9194382e-05   1.3148756e-04   5.0035605e-05   1.4006432e-04   1.7342866e-04   1.1307315e-04   6.3021288e-05   8.1617719e-05   4.3833099e-05   6.7438094e-05   1.7443860e-04   1.1496527e-04   1.2834668e-04   1.2329955e-05   2.8418133e-05   1.3683464e-04   1.3945696e-04   1.1933917e-04   1.0433873e-04   8.2905174e-05   1.4968134e-04   1.2844452e-04   5.9435085e-05   5.7929414e-05   8.0449509e-05   8.6633212e-05   7.2009081e-05   7.5239159e-05   5.5331489e-05   3.1887362e-05   1.4490254e-05  -1.8116235e-05   1.2923794e-04   9.5689938e-05   1.1739427e-04   8.6223762e-05   6.4319636e-05   8.4813986e-05   3.6704980e-05  -1.1825988e-05  -4.3343634e-05  -3.5955049e-05  -5.5324122e-05  -1.1787982e-05  -1.3186127e-05  -6.3074225e-05  -3.6603228e-05  -1.7243110e-05  -4.8108719e-05  -8.1868493e-06  -2.0675954e-05  -1.5438773e-04  -7.8290931e-05  -1.6361210e-05  -3.5604888e-05   6.5876909e-07   6.3660213e-05   9.6990349e-05   1.8282965e-04   1.4517565e-04  -3.5064109e-05  -1.5697470e-06  -5.8038217e-05  -5.7949245e-05   1.3959009e-05  -4.0495969e-05  -4.7805139e-05  -5.7289136e-05  -1.1653363e-04  -1.1067837e-04   7.8661462e-05   4.9799657e-05   1.9284897e-05  -3.4755356e-05  -5.1360397e-05  -8.5727028e-05  -7.8699347e-05  -9.5204886e-04  -1.7220357e-04  -6.5311578e-04  -1.1080419e-03  -9.1456489e-04  -3.6247577e-04  -8.4522280e-04  -2.9636000e-04  -6.4141841e-04  -7.9808645e-04  -4.8370153e-04  -4.0602056e-04   5.7463155e-04  -4.4578461e-04  -4.0184004e-04  -2.7648469e-04  -4.5311015e-04  -7.3025139e-04  -6.3754915e-04  -7.3273887e-04  -6.9129873e-04  -3.3836672e-04  -2.4151544e-04  -1.9013455e-04  -3.2767651e-04  -3.4599673e-04  -3.4097376e-04  -8.6792875e-05   1.0747058e-04   1.2766577e-04   2.0492058e-04  -2.7236719e-04  -7.6396637e-05  -7.6098634e-05   4.6936421e-05  -3.4958839e-04   2.3066962e-04   9.3668928e-04
  -6.3002485e-05  -3.2862564e-05  -7.1460066e-05  -9.6673399e-05  -5.3693737e-05  -5.8840413e-05  -5.7903277e-05  -3.4604416e-05  -2.9985183e-05  -8.7792274e-05  -9.9710538e-05  -1.0876705e-04  -3.4659111e-05  -3.4096802e-05  -7.7749375e-05  -9.8201307e-05  -1.2049104e-04  -1.3702700e-04  -1.0488491e-04  -1.1677349e-04  -8.3569168e-05  -4.4911929e-05  -4.9194790e-05  -9.8521634e-05  -6.0583428e-05  -1.0698476e-04  -1.0715712e-04  -7.7791465e-05  -3.2806402e-05  -2.6941668e-05   3.7238288e-05  -8.6110614e-05  -1.1834331e-04  -7.0641659e-05  -7.0752471e-05  -6.1342714e-05  -6.0305796e-05   1.3457625e-05   7.8833442e-05   1.4492795e-04  -3.5827778e-05  -5.7495251e-05  -4.5716622e-05   6.9019980e-05   3.1566780e-05  -1.2642741e-04   1.8632123e-05   9.3270642e-05   9.4936243e-05   1.3822957e-04   4.2761690e-05  -5.0535625e-05  -1.0100758e-06   5.0391079e-05   9.6594096e-05   1.2520319e-04   1.0183754e-04   1.1209332e-04   7.4406214e-05   2.0070257e-05   7.2261742e-05   3.0527323e-04   8.4084498e-05   7.4743723e-05   1.0907059e-04   1.2822858e-04   2.1836123e-04  -8.1956817e-05  -9.9075310e-05   1.7323820e-05   1.5530113e-04   1.8017461e-04   1.7816982e-04   1.3170359e-04   1.3516963e-04   2.5019659e-04   7.3053668e-05   2.0593285e-05  -6.2134695e-05  -2.5850013e-06   3.7846918e-06  -1.3866947e-05   1.3952176e-04  -1.4513817e-04  -3.2061226e-05   4.3728631e-05  -8.1199072e-05  -1.3743723e-07   8.8514678e-05   4.3829947e-05  -9.4493616e-05  -4.6984057e-05  -3.6717907e-05  -6.6653523e-05  -9.6214647e-05  -1.0511426e-04  -5.2890456e-05   3.7352019e-05  -8.1737647e-06   1.6856750e-04   3.5578859e-05   4.2286598e-05   5.0157674e-05   3.7764092e-05   5.1682631e-06   1.6508480e-04   2.0974030e-04  -1.8629900e-04  -9.5882181e-05  -2.3712653e-05   3.7415786e-05   3.7796379e-05   7.0362856e-05  -9.7934325e-05   5.1901320e-05   1.1925639e-05   4.9161717e-05   7.2410644e-05   6.0994900e-05   4.4672709e-05   5.7769405e-06  -3.0458947e-05   6.8598490e-06   3.4315363e-05   2.4944649e-05   5.1534818e-05   2.3693267e-05  -3.8865342e-05   9.9458316e-06   3.5442149e-05   4.2924229e-05   5.9020969e-05   5.1164922e-05   8.3129653e-05   4.2843056e-05   1.7654674e-05   2.7047009e-05   2.9159098e-05   2.8836343e-05   5.1629227e-05   4.5761100e-05   1.4646085e-05  -1.1094899e-05  -2.6898970e-05  -6.5893959e-05   4.9679506e-05   7.6520588e-05   4.4493576e-05   1.9010579e-05   1.4296620e-05   4.8729797e-06   1.5648998e-05  -9.7403560e-05  -6.3612523e-05  -5.5374150e-05  -1.4296725e-04  -6.6949843e-05  -4.0954024e-05   1.5655309e-05  -2.7931984e-06  -3.0825711e-05  -1.1259594e-04  -7.0584416e-05  -4.7454690e-05  -8.4361596e-05  -4.8536003e-06  -7.1699992e-05  -5.7259414e-05  -6.1298406e-05  -1.3494956e-04  -1.5384594e-04  -1.8044128e-04  -1.5902507e-04  -6.0436815e-05  -6.0401944e-05  -1.8125293e-04  -9.5772558e-05  -5.7395162e-05  -1.8153817e-05  -4.0276397e-05  -6.7315391e-05   1.6700010e-05  -4.5666672e-06  -8.7923954e-05  -5.3243590e-05  -5.4198530e-05  -2.5714581e-05  -1.1026194e-05  -3.6407599e-05  -3.4008249e-05  -1.3208776e-05   9.3532747e-07  -1.8347086e-06  -1.8232895e-05  -1.4347714e-05   4.9797951e-06  -3.6426477e-05  -2.6877798e-05   3.7232372e-06   2.7463854e-05   8.9889502e-06   2.4834107e-05  -3.2394172e-05  -2.2080965e-05   1.5177497e-05   2.0489274e-05   2.9709923e-05   2.3209493e-05   1.4579116e-05   2.8716383e-05   1.6531431e-05   6.5423543e-06   7.8053140e-06   6.1807621e-06  -3.3128368e-06   3.5458900e-05   3.8058508e-05   1.7908948e-05   6.9074166e-06  -2.2324457e-05  -9.3979688e-05   2.0416776e-05   4.5042393e-05   1.2480775e-05   1.1416576e-05  -6.5599410e-07   1.4407223e-05  -7.5657438e-05   8.1359234e-05   4.4424842e-05   5.8099420e-05   1.3527098e-04   1.0935532e-04   4.4547452e-05   2.3839977e-05   1.4101626e-05   1.6943004e-05   3.5641057e-05   4.0265755e-05   4.7074330e-05  -1.7071047e-04  -3.1399617e-06   8.9111908e-05   5.3467110e-05   5.7862070e-05   5.8847106e-05   7.8740023e-05   1.5489180e-04   1.3952706e-04   2.3429096e-05   4.1351960e-05   4.0221410e-05   1.7301424e-05   8.6116288e-05   7.2283926e-05   4.3624828e-05   1.2620672e-05  -2.4188092e-05  -1.1754484e-05   9.6206216e-05   1.0695849e-04   3.9991518e-05   3.9725316e-05   3.1898494e-06   1.0292144e-05  -2.3410425e-05   1.2889144e-04   4.6689396e-05   1.3828998e-04   1.6648168e-04   1.0879177e-04   5.5634359e-05   7.7589804e-05   3.9142184e-05   6.3126934e-05   1.6911953e-04   1.0751240e-04   1.1987866e-04   5.2736778e-06   2.1973040e-05   1.3007262e-04   1.3317149e-04   1.1642789e-04   9.5976320e-05   7.3709204e-05   1.3760853e-04   1.2195779e-04   5.3976655e-05   5.1183367e-05   7.7251311e-05   8.2142567e-05   5.8587270e-05   6.3645605e-05   4.8628663e-05   2.5857064e-05   5.0176207e-06  -2.7306128e-05   1.1871577e-04   8.2100694e-05   1.0653162e-04   7.9573401e-05   5.5299253e-05   7.4492406e-05   2.5563539e-05  -1.2381191e-05  -4.4316608e-05  -3.5401836e-05  -5.6555255e-05  -1.2461404e-05  -1.0253601e-05  -5.7186422e-05  -3.2705850e-05  -1.5564491e-05  -4.8551612e-05  -1.5798200e-06  -1.7040112e-05  -1.5018450e-04  -7.5612289e-05  -1.1967315e-05  -3.5186716e-05   1.5545459e-06   6.9300060e-05   9.9225702e-05   1.8876107e-04   1.5146832e-04  -3.3084679e-05   1.6455136e-06  -5.1585686e-05  -5.1771520e-05   2.0751682e-05  -3.4347004e-05  -4.2536919e-05  -5.0121350e-05  -1.0856163e-04  -9.7730329e-05   8.2304626e-05   5.8601692e-05   2.7237470e-05  -2.7998906e-05  -4.2907364e-05  -7.8658656e-05  -6.1152978e-05  -9.3767590e-04  -1.9178092e-04  -6.1879099e-04  -1.0612445e-03  -8.9235901e-04  -3.4868540e-04  -8.1831427e-04  -2.4330395e-04  -6.2709813e-04  -7.8889642e-04  -4.7721560e-04  -3.8984551e-04   5.8803878e-04  -4.2867893e-04  -3.7770503e-04  -2.6242092e-04  -4.4989864e-04  -7.2749001e-04  -6.3817772e-04  -7.3269168e-04  -6.9538726e-04  -3.3477744e-04  -2.2624034e-04  -1.8960729e-04  -2.9799427e-04  -3.3584958e-04  -3.2439871e-04  -7.4224655e-05   9.6997679e-05   1.5678506e-04   2.6392327e-04  -2.6755109e-04  -6.5825886e-05  -7.5604408e-05   4.8353570e-05  -3.2590247e-04   2.5170370e-04   9.6471265e-04
  -6.4910221e-05  -3.3895584e-05  -7.2373095e-05  -9.8968774e-05  -5.4896474e-05  -5.8718696e-05  -5.7994375e-05  -3.4457740e-05  -2.9762697e-05  -8.8474296e-05  -1.0015757e-04  -1.0838933e-04  -3.5473938e-05  -3.2980477e-05  -7.7894620e-05  -9.8252081e-05  -1.2166235e-04  -1.3747898e-04  -1.0555496e-04  -1.1954234e-04  -8.7645210e-05  -4.6600632e-05  -4.9826232e-05  -1.0515422e-04  -6.2986557e-05  -1.0666234e-04  -1.0614345e-04  -7.7845347e-05  -3.3887468e-05  -2.4265360e-05   3.9136628e-05  -8.7667436e-05  -1.1670235e-04  -7.0549848e-05  -6.9796576e-05  -6.0333546e-05  -5.9664277e-05   1.3099362e-05   9.3607993e-05   1.6938419e-04  -2.9761810e-05  -4.2356181e-05  -3.6877989e-05   8.0481299e-05   4.0609484e-05  -1.3155684e-04   2.5495079e-05   1.0554640e-04   1.0916246e-04   1.5474363e-04   5.6856793e-05  -3.7249041e-05   2.6219917e-06   6.1952945e-05   1.0771424e-04   1.3953738e-04   1.1309631e-04   1.2414661e-04   8.1094675e-05   2.5370025e-05   8.2447228e-05   3.4558103e-04   9.4200662e-05   9.0623144e-05   1.2507909e-04   1.4520066e-04   2.3754652e-04  -7.8910734e-05  -1.0935337e-04   3.1307798e-05   1.7226904e-04   2.0115373e-04   1.9477275e-04   1.4851454e-04   1.6203317e-04   2.7590637e-04   7.1788837e-05   1.5475405e-05  -6.5332719e-05  -1.1257757e-05   5.1025624e-07  -1.0178302e-05   1.3935768e-04  -1.4502581e-04  -2.7642743e-05   4.2762564e-05  -8.1669521e-05   6.4055604e-06   8.0213974e-05   3.9910927e-05  -9.5204317e-05  -3.4773836e-05  -3.6138683e-05  -6.3222742e-05  -9.8047716e-05  -1.0589562e-04  -7.2583779e-05   2.8956528e-05  -9.5711851e-06   1.6663902e-04   2.8711304e-05   4.5485750e-05   5.0246528e-05   3.2907812e-05   3.6662580e-07   1.5269334e-04   1.8268596e-04  -1.8643909e-04  -8.5939985e-05  -2.7505238e-05   3.6354355e-05   3.6244319e-05   6.6855379e-05  -1.1158955e-04   5.3132835e-05   1.2056453e-05   5.1518997e-05   7.6802106e-05   6.0715056e-05   4.4043576e-05   8.8857259e-06  -2.8697111e-05   7.2919188e-06   3.7170738e-05   2.7478665e-05   5.3277503e-05   2.6337861e-05  -3.7990043e-05   1.1758999e-05   3.8442584e-05   4.7950571e-05   6.4300836e-05   5.5872656e-05   8.7419824e-05   4.6173874e-05   1.7023800e-05   2.7943281e-05   3.3547399e-05   2.9660532e-05   5.2133450e-05   4.6304020e-05   1.5814284e-05  -1.0355173e-05  -2.7386127e-05  -6.8816938e-05   5.2679021e-05   7.6375497e-05   4.5290503e-05   2.1013600e-05   1.4506939e-05   3.6556575e-06   1.2837705e-05  -9.9033297e-05  -6.7872893e-05  -5.9884605e-05  -1.4630680e-04  -6.9819951e-05  -4.3630744e-05   1.6441223e-05  -6.0483250e-06  -3.2962234e-05  -1.1894569e-04  -7.1385236e-05  -5.0514869e-05  -9.1218204e-05  -8.8310075e-06  -7.2239355e-05  -5.8562460e-05  -6.0817169e-05  -1.3008060e-04  -1.5163354e-04  -1.7808478e-04  -1.5421937e-04  -6.6482757e-05  -6.1358692e-05  -1.8435515e-04  -9.9826854e-05  -5.8946110e-05  -1.8388006e-05  -4.1988066e-05  -7.0709849e-05   1.0690107e-05  -1.6847466e-05  -8.5158247e-05  -5.0032914e-05  -5.7767510e-05  -2.8291889e-05  -1.3657618e-05  -4.0034512e-05  -4.5169978e-05  -1.3447507e-05   2.1499996e-06  -1.7531205e-06  -1.7398708e-05  -1.6337654e-05   6.0549381e-06  -3.8383187e-05  -2.4563441e-05   4.5939094e-06   3.0718250e-05   1.1920182e-05   2.8271700e-05  -2.9699579e-05  -2.0861921e-05   1.7306581e-05   2.2709004e-05   3.5477180e-05   2.7818841e-05   1.8661896e-05   3.5107250e-05   2.2453408e-05   7.7033866e-06   1.0465889e-05   1.2622801e-05  -1.9271927e-06   3.8938419e-05   3.9922159e-05   2.0897713e-05   1.1305859e-05  -2.3143670e-05  -1.0060161e-04   2.3867231e-05   4.8169393e-05   1.4321345e-05   1.4630263e-05   1.2149687e-06   1.8678161e-05  -7.6803569e-05   7.8058950e-05   4.0380893e-05   5.3863818e-05   1.3235209e-04   1.0524401e-04   3.9145553e-05   2.2351825e-05   1.1770652e-05   1.3849056e-05   2.8132582e-05   3.5947606e-05   3.9344610e-05  -1.8172846e-04  -6.7803878e-06   8.3545571e-05   4.6550219e-05   5.5515370e-05   5.4959405e-05   7.5103329e-05   1.5090785e-04   1.3907665e-04   1.8174103e-05   3.6326330e-05   3.7142228e-05   1.1835748e-05   7.7257295e-05   6.2800372e-05   3.9174535e-05   9.6597070e-06  -3.1878624e-05  -1.7512467e-05   8.9930247e-05   9.5737550e-05   2.9564075e-05   3.2997203e-05  -4.2803380e-06   6.0404751e-06  -2.7493450e-05   1.2405889e-04   4.2282432e-05   1.3501513e-04   1.5660889e-04   1.0239095e-04   4.6706685e-05   7.2673195e-05   3.3391952e-05   5.8091464e-05   1.6184171e-04   9.8050385e-05   1.0913636e-04  -3.4201726e-06   1.4776755e-05   1.2078801e-04   1.2515750e-04   1.1163766e-04   8.5352440e-05   6.2107701e-05   1.2160583e-04   1.1220733e-04   4.7367008e-05   4.3020042e-05   7.2949419e-05   7.6831104e-05   4.2770520e-05   5.0242737e-05   4.1030238e-05   1.9384721e-05  -4.9832291e-06  -3.7612860e-05   1.0513334e-04   6.6011148e-05   9.3126229e-05   7.1531594e-05   4.4823838e-05   6.2547615e-05   1.2973058e-05  -1.2050630e-05  -4.4452844e-05  -3.3757148e-05  -5.6057989e-05  -1.1854171e-05  -6.4937048e-06  -5.1204795e-05  -2.7112987e-05  -1.3140481e-05  -4.7926999e-05   5.8349157e-06  -1.2380853e-05  -1.4367775e-04  -7.2029968e-05  -7.0944509e-06  -3.4038488e-05   3.0181079e-06   7.5798820e-05   1.0230652e-04   1.9561423e-04   1.5814566e-04  -3.0207756e-05   5.5131286e-06  -4.4275768e-05  -4.4889822e-05   2.8365368e-05  -2.7322170e-05  -3.6877589e-05  -4.2391576e-05  -9.9782859e-05  -8.4544377e-05   8.6313002e-05   6.7908798e-05   3.5013448e-05  -2.1358331e-05  -3.3846569e-05  -7.1671237e-05  -4.3834223e-05  -9.1963849e-04  -2.1005022e-04  -5.8560138e-04  -1.0190307e-03  -8.7185582e-04  -3.3668838e-04  -7.8712317e-04  -1.9282885e-04  -6.0976020e-04  -7.7604536e-04  -4.7177438e-04  -3.7553322e-04   5.9449593e-04  -4.1354539e-04  -3.5536669e-04  -2.4776923e-04  -4.4316460e-04  -7.2302199e-04  -6.3752358e-04  -7.3294227e-04  -6.9690874e-04  -3.3253014e-04  -2.1318601e-04  -1.9189485e-04  -2.7434033e-04  -3.2973666e-04  -3.1296481e-04  -6.5522162e-05   8.5373886e-05   1.8123424e-04   3.1305790e-04  -2.6392435e-04  -5.8525474e-05  -7.7045302e-05   4.9112772e-05  -3.0352217e-04   2.6857707e-04   9.9014032e-04
  -6.6304500e-05  -3.4630616e-05  -7.3050771e-05  -1.0041079e-04  -5.5488103e-05  -5.7907947e-05  -5.8037403e-05  -3.4209862e-05  -2.9486859e-05  -8.8813321e-05  -9.9696448e-05  -1.0707234e-04  -3.7236209e-05  -3.2089881e-05  -7.7404631e-05  -9.7574575e-05  -1.2192737e-04  -1.3671248e-04  -1.0506522e-04  -1.2096579e-04  -9.0674977e-05  -4.8078860e-05  -5.0029582e-05  -1.1123214e-04  -6.5412173e-05  -1.0519775e-04  -1.0422399e-04  -7.7626877e-05  -3.5175773e-05  -2.2198413e-05   3.9858344e-05  -8.7968437e-05  -1.1387786e-04  -6.9860634e-05  -6.8523176e-05  -5.9184773e-05  -5.9159262e-05   1.1913367e-05   1.0879094e-04   1.9345055e-04  -2.1428366e-05  -2.5302890e-05  -2.6396605e-05   9.1666986e-05   4.6587657e-05  -1.3532501e-04   3.2896712e-05   1.1889996e-04   1.2304604e-04   1.7060095e-04   6.9280106e-05  -2.4434456e-05   5.9380878e-06   7.4620285e-05   1.1851881e-04   1.5303780e-04   1.2451111e-04   1.3634782e-04   8.8251126e-05   3.1628845e-05   9.2025635e-05   3.8424738e-04   1.0669658e-04   1.0511981e-04   1.3904787e-04   1.6112074e-04   2.5478026e-04  -7.4070725e-05  -1.2007389e-04   4.5818728e-05   1.8657355e-04   2.2037623e-04   2.0941741e-04   1.6366160e-04   1.8716268e-04   3.0159122e-04   7.0614003e-05   1.1092288e-05  -6.9107442e-05  -2.2876059e-05  -5.0090305e-06  -7.5975198e-06   1.3486780e-04  -1.4415224e-04  -2.1838766e-05   4.3053961e-05  -8.1772301e-05   1.3127348e-05   5.7971372e-05   3.5709905e-05  -9.4758213e-05  -2.1635902e-05  -3.2884620e-05  -5.7364490e-05  -9.7941894e-05  -1.0918554e-04  -9.2926225e-05   2.0113264e-05  -1.2557726e-05   1.6448665e-04   2.1689185e-05   4.6069573e-05   4.6811039e-05   2.6580130e-05  -2.5403375e-06   1.4082269e-04   1.5057101e-04  -1.8845152e-04  -7.8089700e-05  -3.2016179e-05   3.4248387e-05   3.5102322e-05   6.1584035e-05  -1.2611276e-04   5.3812142e-05   1.1954179e-05   5.3014422e-05   7.9951916e-05   5.9650233e-05   4.2910711e-05   1.0734654e-05  -2.7294722e-05   7.2908081e-06   3.9164767e-05   2.9761554e-05   5.4446984e-05   2.8180837e-05  -3.7766661e-05   1.2664513e-05   4.0345913e-05   5.2062544e-05   6.8745818e-05   5.9957323e-05   9.0833469e-05   4.8850652e-05   1.6005609e-05   2.8310108e-05   3.6931252e-05   2.9763712e-05   5.1520796e-05   4.6040699e-05   1.6293289e-05  -9.9083965e-06  -2.8788729e-05  -7.3228867e-05   5.4833587e-05   7.4914184e-05   4.4997886e-05   2.2028714e-05   1.3929346e-05   5.2890625e-07   9.5177185e-06  -1.0090294e-04  -7.2584077e-05  -6.4294640e-05  -1.5005182e-04  -7.3044282e-05  -4.6426232e-05   1.7667850e-05  -9.0437872e-06  -3.4755998e-05  -1.2523119e-04  -7.2404254e-05  -5.3890610e-05  -9.6513372e-05  -1.2338460e-05  -7.2848006e-05  -5.9763917e-05  -6.0437732e-05  -1.2498205e-04  -1.4911301e-04  -1.7518487e-04  -1.4922064e-04  -7.2066312e-05  -6.2276776e-05  -1.8648221e-04  -1.0276654e-04  -6.0812503e-05  -1.9087739e-05  -4.3225589e-05  -7.3259467e-05   4.9727230e-06  -2.8127889e-05  -8.3197868e-05  -4.7562010e-05  -6.1494325e-05  -3.0678004e-05  -1.6334581e-05  -4.3677850e-05  -5.4543824e-05  -1.3515330e-05   3.3908794e-06  -1.8429478e-06  -1.6741182e-05  -1.8144922e-05   7.1725221e-06  -4.0784758e-05  -2.2135781e-05   5.4616761e-06   3.3755840e-05   1.5085387e-05   3.1736954e-05  -2.7409612e-05  -1.9900724e-05   1.9039097e-05   2.4527715e-05   4.0937862e-05   3.2113988e-05   2.2726409e-05   4.1748606e-05   2.8496505e-05   8.9306657e-06   1.3186891e-05   1.8897105e-05  -8.0888234e-07   4.2147758e-05   4.1716869e-05   2.3598331e-05   1.5646066e-05  -2.4380896e-05  -1.0757279e-04   2.7207791e-05   5.0942901e-05   1.6157853e-05   1.7498545e-05   3.2249370e-06   2.1781127e-05  -7.7043755e-05   7.3673267e-05   3.5812509e-05   4.9290427e-05   1.2816165e-04   9.9893366e-05   3.2883296e-05   2.0598056e-05   8.6598390e-06   1.0717240e-05   2.0494652e-05   3.0987365e-05   3.0803828e-05  -1.9035220e-04  -1.0371853e-05   7.6531829e-05   3.9113534e-05   5.2453494e-05   5.0078946e-05   6.9937360e-05   1.4421913e-04   1.3624839e-04   1.2848891e-05   3.0877886e-05   3.3652539e-05   6.0874408e-06   6.7420420e-05   5.2767013e-05   3.4787476e-05   6.7792785e-06  -3.9269612e-05  -2.3782593e-05   8.1723927e-05   8.3029206e-05   1.8489891e-05   2.6134159e-05  -1.1798959e-05   1.6376742e-06  -3.1290347e-05   1.1714750e-04   3.6921231e-05   1.3035509e-04   1.4415396e-04   9.4063598e-05   3.6534587e-05   6.7112904e-05   2.6795603e-05   5.2491885e-05   1.5286716e-04   8.6959522e-05   9.6507332e-05  -1.3299336e-05   7.1499168e-06   1.0931334e-04   1.1567375e-04   1.0517007e-04   7.2795832e-05   4.8418214e-05   1.0211766e-04   9.9431156e-05   3.9850161e-05   3.3718333e-05   6.7811431e-05   7.0909002e-05   2.5074893e-05   3.5530229e-05   3.2858960e-05   1.2777422e-05  -1.5101915e-05  -4.8534508e-05   8.8836819e-05   4.7905361e-05   7.7651907e-05   6.2432854e-05   3.3292948e-05   4.9391305e-05  -4.9716665e-07  -1.0755105e-05  -4.3788635e-05  -3.1154886e-05  -5.3905258e-05  -9.9373814e-06  -1.9502292e-06  -4.5518821e-05  -2.0148814e-05  -1.0056147e-05  -4.6297587e-05   1.3870354e-05  -6.8074440e-06  -1.3561244e-04  -6.7928481e-05  -1.9970549e-06  -3.2262468e-05   5.0067380e-06   8.3116292e-05   1.0635166e-04   2.0349287e-04   1.6524668e-04  -2.6571433e-05   9.9149997e-06  -3.6393817e-05  -3.7565177e-05   3.6588068e-05  -1.9661360e-05  -3.1051964e-05  -3.4433255e-05  -9.0666346e-05  -7.1748227e-05   9.0580102e-05   7.7495555e-05   4.2366388e-05  -1.5143858e-05  -2.4509958e-05  -6.5084993e-05  -2.7394878e-05  -9.0010449e-04  -2.2688207e-04  -5.5576242e-04  -9.8449251e-04  -8.5487423e-04  -3.2754750e-04  -7.5433146e-04  -1.4737518e-04  -5.9121654e-04  -7.6168682e-04  -4.6835123e-04  -3.6443194e-04   5.9438755e-04  -4.0165407e-04  -3.3636728e-04  -2.3370177e-04  -4.3408847e-04  -7.1803427e-04  -6.3663797e-04  -7.3448943e-04  -6.9668828e-04  -3.3224657e-04  -2.0322309e-04  -1.9742782e-04  -2.5801066e-04  -3.2833407e-04  -3.0771355e-04  -6.1222151e-05   7.2857420e-05   2.0026396e-04   3.5056067e-04  -2.6190870e-04  -5.5034389e-05  -8.1094816e-05   4.8849033e-05  -2.8384657e-04   2.8083759e-04   1.0132601e-03
  -6.7180456e-05  -3.5084644e-05  -7.3486307e-05  -1.0101852e-04  -5.5460198e-05  -5.6470388e-05  -5.8048227e-05  -3.3920240e-05  -2.9167509e-05  -8.8846057e-05  -9.8437250e-05  -1.0491139e-04  -3.9965491e-05  -3.1512673e-05  -7.6366667e-05  -9.6235983e-05  -1.2134259e-04  -1.3486111e-04  -1.0353757e-04  -1.2104715e-04  -9.2594674e-05  -4.9363082e-05  -4.9831033e-05  -1.1670117e-04  -6.7835676e-05  -1.0268868e-04  -1.0151820e-04  -7.7202398e-05  -3.6699520e-05  -2.0872027e-05   3.9367636e-05  -8.7061498e-05  -1.0997104e-04  -6.8574507e-05  -6.6991640e-05  -5.7960226e-05  -5.8786860e-05   9.9588124e-06   1.2409584e-04   2.1651032e-04  -1.0868652e-05  -6.7686990e-06  -1.4556171e-05   1.0227805e-04   4.9483288e-05  -1.3762616e-04   4.0780206e-05   1.3321117e-04   1.3624241e-04   1.8541641e-04   7.9756674e-05  -1.2508422e-05   9.0052835e-06   8.8331837e-05   1.2880196e-04   1.6528479e-04   1.3579558e-04   1.4825987e-04   9.5665445e-05   3.8786810e-05   1.0070395e-04   4.2029930e-04   1.2169266e-04   1.1776775e-04   1.5052782e-04   1.7561585e-04   2.6969742e-04  -6.7266575e-05  -1.2986802e-04   6.0398580e-05   1.9782674e-04   2.3741301e-04   2.2185195e-04   1.7680135e-04   2.0973664e-04   3.2734864e-04   6.9233790e-05   7.6395881e-06  -7.3249703e-05  -3.7597884e-05  -1.3220778e-05  -6.2741395e-06   1.2502739e-04  -1.4259594e-04  -1.4800563e-05   4.5120777e-05  -8.1469418e-05   2.0178202e-05   2.0124853e-05   3.1459116e-05  -9.3114967e-05  -7.8051065e-06  -2.6264175e-05  -4.8790866e-05  -9.5618724e-05  -1.1507193e-04  -1.1347558e-04   1.1156640e-05  -1.6879928e-05   1.6248160e-04   1.4721915e-05   4.4421655e-05   4.0246306e-05   1.9146364e-05  -2.8345045e-06   1.3051702e-04   1.1444236e-04  -1.9271034e-04  -7.2467691e-05  -3.6558814e-05   3.1379681e-05   3.4792417e-05   5.5342835e-05  -1.4114822e-04   5.3860060e-05   1.1533091e-05   5.3578783e-05   8.1675693e-05   5.7804458e-05   4.1274255e-05   1.1126562e-05  -2.6467154e-05   6.7946235e-06   4.0147407e-05   3.1617475e-05   5.4930956e-05   2.8949885e-05  -3.8415008e-05   1.2520913e-05   4.1010313e-05   5.5038054e-05   7.2120897e-05   6.3212553e-05   9.3168842e-05   5.0682293e-05   1.4589285e-05   2.8064286e-05   3.9094588e-05   2.9141096e-05   4.9701489e-05   4.4863782e-05   1.5989885e-05  -9.8634796e-06  -3.1196060e-05  -7.9249773e-05   5.5966891e-05   7.2044693e-05   4.3506813e-05   2.1918231e-05   1.2456013e-05  -4.5633908e-06   5.5975457e-06  -1.0298219e-04  -7.7551245e-05  -6.8433534e-05  -1.5389435e-04  -7.6474938e-05  -4.9181196e-05   1.9513835e-05  -1.1507952e-05  -3.6084310e-05  -1.3126269e-04  -7.3477286e-05  -5.7364629e-05  -9.9994502e-05  -1.5115654e-05  -7.3436337e-05  -6.0724422e-05  -6.0114062e-05  -1.1975751e-04  -1.4632590e-04  -1.7168105e-04  -1.4406606e-04  -7.6918970e-05  -6.3066463e-05  -1.8741952e-04  -1.0440903e-04  -6.2721340e-05  -2.0020315e-05  -4.3783972e-05  -7.4715912e-05  -7.6862307e-08  -3.7955770e-05  -8.1985721e-05  -4.5773152e-05  -6.5221457e-05  -3.2706346e-05  -1.8848574e-05  -4.7114790e-05  -6.1855401e-05  -1.3456228e-05   4.5716487e-06  -2.1008014e-06  -1.6417167e-05  -1.9729748e-05   8.2596526e-06  -4.3729886e-05  -1.9786311e-05   6.2477148e-06   3.6448457e-05   1.8309938e-05   3.5067150e-05  -2.5820349e-05  -1.9390068e-05   2.0258358e-05   2.5821515e-05   4.5847252e-05   3.5915244e-05   2.6629093e-05   4.8491946e-05   3.4547646e-05   1.0188142e-05   1.5854677e-05   2.4741592e-05   1.5374227e-08   4.4946025e-05   4.3336988e-05   2.5878571e-05   1.9713718e-05  -2.6038690e-05  -1.1489936e-04   3.0340452e-05   5.3230474e-05   1.7883367e-05   1.9845202e-05   5.2308646e-06   2.3520163e-05  -7.6575074e-05   6.8372363e-05   3.0905056e-05   4.4566899e-05   1.2284771e-04   9.3518741e-05   2.6007941e-05   1.8721557e-05   4.9165408e-06   7.6445613e-06   1.3022273e-05   2.5610982e-05   2.1815674e-05  -1.9613541e-04  -1.3685111e-05   6.8386200e-05   3.1429781e-05   4.8829465e-05   4.4383661e-05   6.3416495e-05   1.3508786e-04   1.3117435e-04   7.6767929e-06   2.5237047e-05   2.9990317e-05   3.6498183e-07   5.7038820e-05   4.2636349e-05   3.0718143e-05   4.1596586e-06  -4.5923865e-05  -3.0218229e-05   7.1886356e-05   6.9348980e-05   7.1768348e-06   1.9413626e-05  -1.9027643e-05  -2.6860004e-06  -3.4641318e-05   1.0839083e-04   3.0755399e-05   1.2447057e-04   1.2956459e-04   8.4084429e-05   2.5467732e-05   6.1181501e-05   1.9615599e-05   4.6506737e-05   1.4251334e-04   7.4687217e-05   8.2464387e-05  -2.3862603e-05  -5.5796711e-07   9.6068308e-05   1.0502403e-04   9.7291258e-05   5.8707423e-05   3.3043742e-05   7.9731902e-05   8.3989433e-05   3.1716413e-05   2.3614564e-05   6.2144516e-05   6.4608032e-05   6.1074501e-06   2.0072345e-05   2.4464983e-05   6.3534595e-06  -2.4908373e-05  -5.9496486e-05   7.0269117e-05   2.8348398e-05   6.0674826e-05   5.2652800e-05   2.1163405e-05   3.5498773e-05  -1.4220843e-05  -8.4487527e-06  -4.2383945e-05  -2.7751146e-05  -5.0227656e-05  -6.7357328e-06   3.3121606e-06  -4.0456240e-05  -1.2223972e-05  -6.4173764e-06  -4.3745595e-05   2.2336003e-05  -4.4549223e-07  -1.2680764e-04  -6.3700994e-05   3.0780788e-06  -2.9970955e-05   7.4786070e-06   9.1182062e-05   1.1144150e-04   2.1244606e-04   1.7278635e-04  -2.2333621e-05   1.4715032e-05  -2.8223533e-05  -3.0050438e-05   4.5198535e-05  -1.1611494e-05  -2.5265733e-05  -2.6571611e-05  -8.1668995e-05  -5.9922457e-05   9.4980558e-05   8.7127849e-05   4.9078872e-05  -9.6192054e-06  -1.5222803e-05  -5.9151625e-05  -1.2408039e-05  -8.8116590e-04  -2.4227392e-04  -5.3119113e-04  -9.6004763e-04  -8.4283142e-04  -3.2214705e-04  -7.2252747e-04  -1.0904482e-04  -5.7326803e-04  -7.4797292e-04  -4.6779224e-04  -3.5770492e-04   5.8820831e-04  -3.9404110e-04  -3.2202901e-04  -2.2137541e-04  -4.2397969e-04  -7.1364706e-04  -6.3648718e-04  -7.3813969e-04  -6.9555452e-04  -3.3441822e-04  -1.9703056e-04  -2.0651151e-04  -2.4979145e-04  -3.3206572e-04  -3.0939643e-04  -6.1652674e-05   5.9599050e-05   2.1340656e-04   3.7522100e-04  -2.6186773e-04  -5.5825402e-05  -8.8476093e-05   4.7095444e-05  -2.6812451e-04   2.8815950e-04   1.0339174e-03
  -6.7548504e-05  -3.5282536e-05  -7.3661520e-05  -1.0083762e-04  -5.4826172e-05  -5.4484529e-05  -5.8032764e-05  -3.3638187e-05  -2.8806114e-05  -8.8596336e-05  -9.6501156e-05  -1.0201082e-04  -4.3624632e-05  -3.1306536e-05  -7.4871775e-05  -9.4304327e-05  -1.1996992e-04  -1.3206783e-04  -1.0111434e-04  -1.1981420e-04  -9.3365958e-05  -5.0466853e-05  -4.9260781e-05  -1.2151663e-04  -7.0211484e-05  -9.9252929e-05  -9.8154918e-05  -7.6625217e-05  -3.8462061e-05  -2.0367179e-05   3.7683340e-05  -8.5029712e-05  -1.0509752e-04  -6.6704730e-05  -6.5252558e-05  -5.6710233e-05  -5.8516512e-05   7.3269458e-06   1.3921966e-04   2.3799798e-04   1.7669632e-06   1.2746307e-05  -1.7223888e-06   1.1202235e-04   4.9507695e-05  -1.3841514e-04   4.9073782e-05   1.4829739e-04   1.4843006e-04   1.9883060e-04   8.8128412e-05  -1.8208448e-06   1.1925809e-05   1.0297954e-04   1.3838026e-04   1.7589937e-04   1.4665090e-04   1.5942468e-04   1.0311105e-04   4.6716096e-05   1.0821812e-04   4.5285564e-04   1.3916160e-04   1.2817617e-04   1.5917658e-04   1.8837135e-04   2.8203504e-04  -5.8408121e-05  -1.3733452e-04   7.4592911e-05   2.0576941e-04   2.5192585e-04   2.3192099e-04   1.8768811e-04   2.2902473e-04   3.5322715e-04   6.7335711e-05   5.2834039e-06  -7.7471053e-05  -5.5380347e-05  -2.4447843e-05  -6.2774974e-06   1.0890749e-04  -1.4045949e-04  -6.7660135e-06   4.9402952e-05  -8.0687358e-05   2.7724524e-05  -3.4224499e-05   2.7366972e-05  -9.0246727e-05   6.4759976e-06  -1.5661126e-05  -3.7303380e-05  -9.0881974e-05  -1.2343696e-04  -1.3370436e-04   2.4457653e-06  -2.2140380e-05   1.6101753e-04   8.0332157e-06   4.1138787e-05   3.1167686e-05   1.1066748e-05   1.1749701e-07   1.2272095e-04   7.5530338e-05  -1.9934879e-04  -6.9031599e-05  -4.0364693e-05   2.8115846e-05   3.5710308e-05   4.9055797e-05  -1.5631410e-04   5.3216529e-05   1.0720838e-05   5.3183986e-05   8.1858098e-05   5.5206425e-05   3.9154414e-05   9.9523839e-06  -2.6395717e-05   5.7716049e-06   4.0028388e-05   3.2891738e-05   5.4652270e-05   2.8436785e-05  -4.0093474e-05   1.1239478e-05   4.0356148e-05   5.6714008e-05   7.4232288e-05   6.5459812e-05   9.4248645e-05   5.1500377e-05   1.2782867e-05   2.7153525e-05   3.9895847e-05   2.7830452e-05   4.6646616e-05   4.2713334e-05   1.4863037e-05  -1.0289662e-05  -3.4620021e-05  -8.6873462e-05   5.5933195e-05   6.7734396e-05   4.0771358e-05   2.0615943e-05   1.0032265e-05  -1.1553861e-05   1.0208873e-06  -1.0520023e-04  -8.2529046e-05  -7.2127645e-05  -1.5747332e-04  -7.9928647e-05  -5.1720553e-05   2.2132590e-05  -1.3187927e-05  -3.6838415e-05  -1.3684747e-04  -7.4421685e-05  -6.0695954e-05  -1.0151022e-04  -1.6936049e-05  -7.3899635e-05  -6.1303947e-05  -5.9782836e-05  -1.1447068e-04  -1.4327408e-04  -1.6747095e-04  -1.3872655e-04  -8.0794175e-05  -6.3619555e-05  -1.8695924e-04  -1.0461376e-04  -6.4366929e-05  -2.0929561e-05  -4.3487261e-05  -7.4859217e-05  -4.1059315e-06  -4.5960260e-05  -8.1386889e-05  -4.4557626e-05  -6.8782353e-05  -3.4217533e-05  -2.0991174e-05  -5.0110972e-05  -6.6938210e-05  -1.3334142e-05   5.5960214e-06  -2.5133433e-06  -1.6568475e-05  -2.1071403e-05   9.2362111e-06  -4.7280138e-05  -1.7694162e-05   6.8748171e-06   3.8684191e-05   2.1405130e-05   3.8092913e-05  -2.5191837e-05  -1.9498547e-05   2.0870254e-05   2.6488843e-05   4.9980697e-05   3.9054204e-05   3.0218552e-05   5.5155393e-05   4.0471441e-05   1.1434432e-05   1.8349853e-05   2.9908657e-05   5.4028236e-07   4.7197031e-05   4.4670819e-05   2.7623826e-05   2.3301979e-05  -2.8078533e-05  -1.2255002e-04   3.3154731e-05   5.4900388e-05   1.9384496e-05   2.1517567e-05   7.0825474e-06   2.3779659e-05  -7.5634513e-05   6.2362695e-05   2.5855715e-05   3.9883286e-05   1.1659441e-04   8.6367729e-05   1.8800723e-05   1.6874820e-05   7.3963694e-07   4.7232436e-06   6.0028148e-06   2.0074505e-05   1.2770943e-05  -1.9874495e-04  -1.6485422e-05   5.9484250e-05   2.3788995e-05   4.4825273e-05   3.8097506e-05   5.5776307e-05   1.2386346e-04   1.2406673e-04   2.8756794e-06   1.9640005e-05   2.6405970e-05  -5.0168077e-06   4.6576486e-05   3.2870774e-05   2.7210343e-05   1.9712763e-06  -5.1416856e-05  -3.6437393e-05   6.0794652e-05   5.5260028e-05  -3.9524739e-06   1.3104873e-05  -2.5625481e-05  -6.6819547e-06  -3.7387483e-05   9.8089602e-05   2.3967060e-05   1.1756126e-04   1.1336213e-04   7.2794068e-05   1.3891940e-05   5.5164459e-05   1.2150688e-05   4.0330541e-05   1.3114736e-04   6.1729502e-05   6.7531181e-05  -3.4597979e-05  -7.9835880e-06   8.1538042e-05   9.3542001e-05   8.8319123e-05   4.3550563e-05   1.6450641e-05   5.5148300e-05   6.6341079e-05   2.3287420e-05   1.3085071e-05   5.6273077e-05   5.8173957e-05  -1.3460838e-05   4.4725636e-06   1.6209892e-05   4.2196851e-07  -3.3968508e-05  -6.9882715e-05   4.9947116e-05   7.9645034e-06   4.2830955e-05   4.2594561e-05   8.9298878e-06   2.1390182e-05  -2.7555809e-05  -5.1199749e-06  -4.0318652e-05  -2.3713895e-05  -4.5198319e-05  -2.3238478e-06   9.2136760e-06  -3.6258214e-05  -3.8124564e-06  -2.3473167e-06  -4.0361452e-05   3.1037915e-05   6.5636497e-06  -1.1809346e-04  -5.9724627e-05   7.9112046e-06  -2.7276694e-05   1.0398523e-05   9.9906445e-05   1.1761031e-04   2.2246341e-04   1.8075836e-04  -1.7664466e-05   1.9770509e-05  -2.0027898e-05  -2.2580011e-05   5.3973565e-05  -3.4103991e-06  -1.9695477e-05  -1.9107708e-05  -7.3207678e-05  -4.9566159e-05   9.9376679e-05   9.6574507e-05   5.4977037e-05  -4.9899050e-06  -6.2872394e-06  -5.4050702e-05   6.6426079e-07  -8.6472465e-04  -2.5634478e-04  -5.1341388e-04  -9.4733951e-04  -8.3669951e-04  -3.2115228e-04  -6.9404627e-04  -7.9485971e-05  -5.5758913e-04  -7.3692373e-04  -4.7077503e-04  -3.5629794e-04   5.7652331e-04  -3.9146509e-04  -3.1340056e-04  -2.1186687e-04  -4.1420528e-04  -7.1085922e-04  -6.3789055e-04  -7.4448311e-04  -6.9429450e-04  -3.3939589e-04  -1.9506859e-04  -2.1932715e-04  -2.4995009e-04  -3.4110493e-04  -3.1846027e-04  -6.6932217e-05   4.5649038e-05   2.2048527e-04   3.8643209e-04  -2.6410169e-04  -6.1291047e-05  -9.9931004e-05   4.3316508e-05  -2.5740300e-04   2.9035249e-04   1.0515236e-03
  -6.7430732e-05  -3.5257046e-05  -7.3548109e-05  -9.9939867e-05  -5.3618468e-05  -5.2039999e-05  -5.7983981e-05  -3.3398776e-05  -2.8395106e-05  -8.8075433e-05  -9.4014011e-05  -9.8479568e-05  -4.8124682e-05  -3.1496306e-05  -7.3009047e-05  -9.1844069e-05  -1.1787032e-04  -1.2847617e-04  -9.7945388e-05  -1.1731739e-04  -9.2974477e-05  -5.1396192e-05  -4.8352052e-05  -1.2564176e-04  -7.2475539e-05  -9.5025032e-05  -9.4266896e-05  -7.5934677e-05  -4.0440909e-05  -2.0714248e-05   3.4873794e-05  -8.1984773e-05  -9.9383165e-05  -6.4278989e-05  -6.3346417e-05  -5.5472323e-05  -5.8297092e-05   4.1339071e-06   1.5384811e-04   2.5742209e-04   1.6225105e-05   3.2684004e-05   1.1659887e-05   1.2062579e-04   4.7078959e-05  -1.3771119e-04   5.7681792e-05   1.6391367e-04   1.5932012e-04   2.1051461e-04   9.4339573e-05   7.3616866e-06   1.4819413e-05   1.1839959e-04   1.4708701e-04   1.8455423e-04   1.5677649e-04   1.6937761e-04   1.1034028e-04   5.5217124e-05   1.1434443e-04   4.8115911e-04   1.5891222e-04   1.3604048e-04   1.6476818e-04   1.9914173e-04   2.9163651e-04  -4.7509380e-05  -1.4113959e-04   8.7968417e-05   2.1027436e-04   2.6367176e-04   2.3955828e-04   1.9617708e-04   2.4443116e-04   3.7919837e-04   6.4610829e-05   4.1660678e-06  -8.1421593e-05  -7.5941644e-05  -3.8833219e-05  -7.5881192e-06   8.5734816e-05  -1.3785638e-04   1.9470749e-06   5.6227120e-05  -7.9330959e-05   3.5913883e-05  -1.0510642e-04   2.3587461e-05  -8.6140569e-05   2.0983031e-05  -6.1005812e-07  -2.2815308e-05  -8.3645409e-05  -1.3395446e-04  -1.5299886e-04  -5.6294672e-06  -2.7821950e-05   1.6048141e-04   1.8388678e-06   3.6990429e-05   2.0362234e-05   2.8489831e-06   6.8109124e-06   1.1822347e-04   3.5195223e-05  -2.0823922e-04  -6.7556129e-05  -4.2628702e-05   2.4878096e-05   3.8197161e-05   4.3718940e-05  -1.7121693e-04   5.1848408e-05   9.4678108e-06   5.1844401e-05   8.0462707e-05   5.1908015e-05   3.6594552e-05   7.2003334e-06  -2.7214035e-05   4.2228201e-06   3.8784740e-05   3.3462477e-05   5.3576451e-05   2.6516245e-05  -4.2885228e-05   8.7904002e-06   3.8371731e-05   5.7000492e-05   7.4943131e-05   6.6562461e-05   9.3937408e-05   5.1169533e-05   1.0620908e-05   2.5563847e-05   3.9283242e-05   2.5908602e-05   4.2395346e-05   3.9588086e-05   1.2930950e-05  -1.1205723e-05  -3.8992528e-05  -9.5963618e-05   5.4629934e-05   6.2019666e-05   3.6815763e-05   1.8132822e-05   6.6678578e-06  -2.0249131e-05  -4.2214543e-06  -1.0745819e-04  -8.7241428e-05  -7.5219479e-05  -1.6040748e-04  -8.3202731e-05  -5.3865588e-05   2.5648342e-05  -1.3866571e-05  -3.6931616e-05  -1.4179661e-04  -7.5039939e-05  -6.3633719e-05  -1.0101802e-04  -1.7620969e-05  -7.4123432e-05  -6.1369487e-05  -5.9377962e-05  -1.0913647e-04  -1.3991624e-04  -1.6241679e-04  -1.3312093e-04  -8.3467874e-05  -6.3816519e-05  -1.8491900e-04  -1.0329422e-04  -6.5438534e-05  -2.1553484e-05  -4.2191033e-05  -7.3512904e-05  -6.8014006e-06  -5.1869850e-05  -8.1205392e-05  -4.3760426e-05  -7.2015156e-05  -3.5079706e-05  -2.2562304e-05  -5.2433569e-05  -6.9731808e-05  -1.3226560e-05   6.3644908e-06  -3.0607197e-06  -1.7313062e-05  -2.2171884e-05   1.0018451e-05  -5.1454326e-05  -1.6018282e-05   7.2713828e-06   4.0373544e-05   2.4176882e-05   4.0649247e-05  -2.5725253e-05  -2.0358942e-05   2.0806869e-05   2.6458370e-05   5.3145737e-05   4.1381003e-05   3.3341449e-05   6.1526833e-05   4.6113096e-05   1.2623890e-05   2.0555029e-05   3.4183301e-05   7.7952484e-07   4.8777286e-05   4.5610834e-05   2.8744566e-05   2.6227958e-05  -3.0429605e-05  -1.3045770e-04   3.5533225e-05   5.5831542e-05   2.0547742e-05   2.2397961e-05   8.6308637e-06   2.2529780e-05  -7.4482526e-05   5.5875074e-05   2.0867393e-05   3.5416436e-05   1.0961845e-04   7.8710920e-05   1.1562800e-05   1.5209006e-05  -3.6368409e-06   2.0371598e-06  -2.9791347e-07   1.4649475e-05   4.0727307e-06  -1.9798247e-04  -1.8548080e-05   5.0248952e-05   1.6481716e-05   4.0644497e-05   3.1475379e-05   4.7301170e-05   1.1096217e-04   1.1520386e-04  -1.3437140e-06   1.4320909e-05   2.3143476e-05  -9.7532162e-06   3.6500711e-05   2.3924691e-05   2.4483061e-05   3.6525730e-07  -5.5366992e-05  -4.2045148e-05   4.8883857e-05   4.1346683e-05  -1.4480873e-05   7.4633313e-06  -3.1272128e-05  -1.0097159e-05  -3.9383053e-05   8.6592960e-05   1.6766330e-05   1.0986137e-04   9.6123950e-05   6.0580019e-05   2.2084769e-06   4.9344124e-05   4.7210385e-06   3.4161616e-05   1.1916572e-04   4.8609772e-05   5.2267646e-05  -4.5016902e-05  -1.4773838e-05   6.6251711e-05   8.1580250e-05   7.8608192e-05   2.7825453e-05  -8.5089434e-07   2.9141122e-05   4.7028698e-05   1.4901144e-05   2.5296343e-06   5.0526425e-05   5.1856074e-05  -3.2930994e-05  -1.0659409e-05   8.4433251e-06  -4.7258337e-06  -4.1871192e-05  -7.9078895e-05   2.8440697e-05  -1.2595027e-05   2.4788649e-05   3.2663830e-05  -2.9047449e-06   7.5968618e-06  -3.9885052e-05  -7.8946236e-07  -3.7683002e-05  -1.9207014e-05  -3.9028917e-05   3.1805012e-06   1.5658443e-05  -3.3058287e-05   4.5805428e-06   2.0185640e-06  -3.6235872e-05   3.9799072e-05   1.4073199e-05  -1.1025296e-04  -5.6330390e-05   1.2323918e-05  -2.4289615e-05   1.3739462e-05   1.0917927e-04   1.2485198e-04   2.3348510e-04   1.8913572e-04  -1.2735453e-05   2.4939889e-05  -1.2042094e-05  -1.5355658e-05   6.2709548e-05   4.7222989e-06  -1.4477848e-05  -1.2304051e-05  -6.5637465e-05  -4.1065189e-05   1.0363143e-04   1.0562111e-04   5.9933345e-05  -1.3910519e-06   2.0330180e-06  -4.9872265e-05   1.1490689e-05  -8.5240139e-04  -2.6932978e-04  -5.0349250e-04  -9.4719191e-04  -8.3698136e-04  -3.2498956e-04  -6.7082248e-04  -5.9799956e-05  -5.4563174e-04  -7.3030767e-04  -4.7778894e-04  -3.6087282e-04   5.5990887e-04  -3.9437302e-04  -3.1120836e-04  -2.0610882e-04  -4.0610268e-04  -7.1050055e-04  -6.4149125e-04  -7.5387880e-04  -6.9363008e-04  -3.4738244e-04  -1.9756120e-04  -2.3593799e-04  -2.5825119e-04  -3.5538496e-04  -3.3504787e-04  -7.6971865e-05   3.0956036e-05   2.2159839e-04   3.8420569e-04  -2.6884692e-04  -7.1740858e-05  -1.1615718e-04   3.6950722e-05  -2.5247417e-04   2.8737445e-04   1.0651107e-03
