  -1.0472348e-04  -7.8418335e-05  -7.4646751e-05  -9.1052329e-05  -2.7536834e-05  -8.1991245e-05   3.3202075e-06   3.9264725e-05  -1.0159039e-04  -1.4609079e-04  -1.2279011e-04  -1.1319766e-04  -1.2414215e-04  -3.0344057e-05  -1.6053369e-05  -7.9128008e-05  -1.4949715e-04  -1.1802416e-04  -8.5246888e-05  -2.4665673e-04  -8.5351200e-05  -8.0263184e-06  -7.5086219e-05  -7.1203294e-05   0.0000000e+00  -3.5302177e-05   9.6781452e-05   0.0000000e+00   0.0000000e+00  -1.0297677e-04   0.0000000e+00  -4.0681957e-06   2.1962142e-05  -4.4878674e-05   0.0000000e+00  -1.4145854e-05  -2.8448321e-05  -8.4908450e-06  -2.0346123e-04  -2.5020202e-04  -5.4330275e-05  -1.5471581e-04  -5.0012156e-05  -1.1505045e-04  -1.1176780e-04   9.1507675e-06  -6.1648606e-05  -1.3721557e-04  -1.9551409e-04  -1.5732488e-04   2.0622646e-05   9.6312527e-05  -9.3898885e-05  -8.4002378e-05  -1.1354697e-04  -1.5318770e-04  -1.2042206e-04  -4.5649646e-04  -9.7762523e-05  -1.4018634e-04  -1.5887936e-04  -9.9552852e-05   0.0000000e+00  -2.4120574e-05   2.8580152e-04   0.0000000e+00   0.0000000e+00   3.0455243e-05   0.0000000e+00   5.7363606e-05   1.4192643e-04  -4.8100369e-05   0.0000000e+00   2.6717102e-05  -2.7822589e-04   1.3033926e-04   1.8729286e-04   2.2681143e-04  -8.1687198e-05  -6.3540169e-05  -5.3362824e-05   2.4766132e-06  -3.4242104e-04   1.4268133e-05   2.0687148e-05  -5.0250943e-05  -3.9424994e-04  -1.1345477e-04   4.5396300e-05  -1.2375095e-04  -1.1379169e-04  -8.4511297e-06  -2.0653184e-04  -2.2907503e-04  -1.4707738e-04   2.0802249e-04  -9.7887271e-05   1.4086621e-05   5.5665296e-06   2.4578532e-05   0.0000000e+00  -1.8453154e-04  -4.9454456e-04   0.0000000e+00   0.0000000e+00   1.0782870e-04   0.0000000e+00  -2.1169410e-04  -4.5740811e-04   2.1455957e-05   0.0000000e+00  -8.9274011e-05  -1.0828289e-04  -1.1971581e-04  -1.4722494e-05  -8.6718767e-06  -1.7646146e-05  -8.5556888e-05  -6.1722488e-05   6.3187194e-06  -3.7853980e-05  -1.1523244e-04   3.6290286e-05   5.2813572e-05   7.8519926e-05   2.8760644e-05  -1.0874194e-06   3.3888725e-05  -5.9720703e-05   2.7033567e-05   5.3415009e-05   5.7428235e-05   4.2991712e-05   5.6045186e-05   4.0261065e-05  -8.6518069e-05  -6.9326502e-06   9.5028576e-07   0.0000000e+00   9.2228246e-07  -9.4265066e-05   0.0000000e+00   0.0000000e+00   7.3448046e-05   0.0000000e+00   1.7876991e-05  -2.4298237e-05   1.0717728e-06   0.0000000e+00  -6.5409821e-05   1.0617095e-04   6.1082198e-05  -9.5900837e-05  -6.3755742e-05   4.2526612e-05  -7.6263764e-05   4.9897520e-05   5.8250240e-06   5.5526217e-05  -5.5691666e-05   3.5062993e-05   4.3529480e-05   1.0377853e-04   2.5319145e-05   4.0070522e-05   7.0728945e-05  -5.3607869e-05   2.8188771e-05  -3.6563328e-06   9.6731853e-05   5.3229666e-05  -5.4836424e-05  -3.5227084e-05   3.1203894e-05   1.7760543e-06  -1.4737115e-06   0.0000000e+00  -5.6890855e-05  -1.4465780e-04   0.0000000e+00   0.0000000e+00   6.2761610e-05   0.0000000e+00  -2.7990982e-05  -6.6131836e-05   6.5880474e-06   0.0000000e+00  -4.4144024e-06   1.6903914e-04   1.3274357e-04  -2.8936216e-05  -2.9872003e-05   3.0041479e-05  -3.0249365e-05   3.8419955e-08  -1.1450932e-05  -2.6947894e-06  -8.5179487e-05  -1.5541710e-06  -1.3546832e-05   2.6587447e-05  -1.9390468e-05  -4.8856728e-05  -3.0453040e-05  -6.5575210e-05  -3.5355957e-06  -3.3917688e-05   4.3160790e-05   2.3071534e-05  -5.8579232e-05   8.5763461e-06  -4.7924742e-05  -2.0664650e-05  -2.2060046e-05   0.0000000e+00   1.1494802e-05   2.8197139e-05   0.0000000e+00   0.0000000e+00  -1.5290992e-05   0.0000000e+00   2.4379805e-05   3.6734400e-05   1.5427746e-06   0.0000000e+00   2.1202277e-05   3.1414739e-05   1.9232089e-05  -1.3232270e-04  -7.8040287e-05   5.5333444e-05  -1.8502446e-04   6.9301896e-06   1.9744527e-05  -5.8459756e-05  -2.3495221e-04   4.1180204e-05   1.0243671e-04   1.3553005e-04   9.7413158e-05  -8.6866004e-05  -7.7808170e-05  -1.2462875e-04   5.8668645e-05  -7.9952371e-06   1.6436304e-04   1.2868531e-04  -2.3664990e-04   1.0746885e-04  -3.0422204e-06   2.4826854e-05   3.2986634e-05   0.0000000e+00   8.5912684e-05   3.1012519e-05   0.0000000e+00   0.0000000e+00   1.1757631e-04   0.0000000e+00   1.5059182e-04   1.4119936e-04  -6.5749275e-05   0.0000000e+00  -1.3569563e-04  -2.1040995e-04   5.0933266e-05  -3.1987140e-05  -1.3738495e-05  -1.9216702e-05  -2.7831627e-05  -2.9578018e-06  -1.4266898e-05  -1.8472573e-04  -2.5141007e-04   3.8891572e-05  -1.7398356e-05  -4.9905418e-05  -1.2117317e-05  -1.0907299e-05  -1.8155271e-04  -1.4418415e-04  -1.7611283e-05  -3.1637253e-06  -3.4034040e-05  -3.8610266e-05  -7.7481205e-07  -1.4776829e-05   2.9058466e-05  -2.5698471e-06   1.7916550e-05   0.0000000e+00  -3.0874209e-05  -1.6824162e-04   0.0000000e+00   0.0000000e+00   4.7920903e-05   0.0000000e+00  -4.8306568e-05  -1.0954366e-04  -7.7677452e-06   0.0000000e+00  -2.7585895e-05  -8.5141164e-05  -1.2177427e-04   5.7991091e-05   7.8275628e-05   4.0365197e-05   4.4817662e-05   4.6813039e-05   1.1104485e-04   1.2226985e-04   2.1480862e-04  -1.9749642e-05   7.6686189e-05   1.1531966e-04   8.9790293e-05   1.2442282e-04   1.9745101e-04   1.4677000e-04   7.9652958e-06   8.9526763e-05   1.3788780e-04   1.0202145e-04   2.6741488e-04   3.7972179e-05   2.1140157e-05   2.3871899e-05  -6.2707795e-06   0.0000000e+00   4.3523323e-07  -1.2301262e-04   0.0000000e+00   0.0000000e+00  -7.2152512e-05   0.0000000e+00  -9.0385765e-06  -4.9680708e-05   2.0145265e-05   0.0000000e+00   2.9504570e-05   5.5162703e-06   1.4155836e-04  -5.0748142e-05  -9.4508389e-05   3.6916201e-05   9.9576661e-05   5.4047929e-05  -8.3806089e-05  -7.9839776e-05  -2.8055905e-04   9.8208879e-06  -4.7463510e-05   5.1346503e-05  -7.3857685e-05  -3.5180980e-05   3.9257171e-05  -1.4507015e-04  -1.1607045e-05  -2.8867785e-05  -3.6356801e-05  -2.4986815e-05  -3.1522660e-04  -1.8198154e-04   1.0599643e-04  -4.4666981e-05   1.4620542e-04   0.0000000e+00  -1.2870795e-04  -6.0517572e-05   0.0000000e+00   0.0000000e+00  -2.2585180e-05   0.0000000e+00  -5.1719137e-05  -6.0034843e-05   3.2086907e-05   0.0000000e+00  -1.2266474e-04   4.8407874e-05   2.8729994e-04  -1.2750961e-05  -2.4863565e-05  -1.4425427e-04  -5.4037541e-05  -7.5593619e-05  -5.8526171e-05  -3.0378141e-04  -3.0216844e-04  -9.6990784e-05  -1.7095249e-04  -1.5529362e-04  -6.0059154e-05  -7.9314907e-05  -1.1088894e-04  -1.4485890e-04  -1.8486089e-04  -1.3517885e-04  -7.2329526e-05  -6.4959360e-05   2.0872509e-05  -1.2544804e-04  -9.7261640e-05  -6.6365284e-05  -1.0927551e-04   0.0000000e+00  -1.7572469e-04  -1.8905992e-04   0.0000000e+00   0.0000000e+00  -1.4454608e-04   0.0000000e+00  -8.1625693e-05  -1.8546975e-04  -4.1202428e-05   0.0000000e+00  -8.8735468e-05   4.4085995e-05   6.7374416e-06
  -1.1384891e-04  -8.4689058e-05  -8.1438672e-05  -1.0107556e-04  -2.9058873e-05  -8.9176852e-05   6.0221536e-06   3.6248755e-05  -1.1249216e-04  -1.5750301e-04  -1.2839270e-04  -1.2159433e-04  -1.3922688e-04  -3.7810746e-05  -2.0264190e-05  -8.6633783e-05  -1.6379803e-04  -1.2365006e-04  -9.1442666e-05  -2.7146217e-04  -9.1745001e-05  -8.0665234e-06  -8.1526908e-05  -7.7084838e-05   0.0000000e+00  -3.7522423e-05   1.0406152e-04   0.0000000e+00   0.0000000e+00  -1.1013428e-04   0.0000000e+00  -2.2136934e-06   2.6626941e-05  -4.8779286e-05   0.0000000e+00  -1.3943796e-05  -3.2597465e-05  -1.0407050e-05  -2.4053328e-04  -2.9062923e-04  -7.3249118e-05  -1.7422923e-04  -6.0385386e-05  -1.3987193e-04  -1.4660636e-04  -2.4767143e-05  -7.5595927e-05  -1.6426652e-04  -2.1555279e-04  -1.8385432e-04   3.0504513e-05   1.0652217e-04  -1.2556436e-04  -1.1520075e-04  -1.3275449e-04  -1.7278887e-04  -1.4115133e-04  -5.1483096e-04  -1.1976024e-04  -1.5483364e-04  -1.8020961e-04  -1.1018034e-04   0.0000000e+00  -4.6473954e-05   2.5717114e-04   0.0000000e+00   0.0000000e+00   6.4259842e-05   0.0000000e+00   4.4387943e-05   1.2400841e-04  -5.3197238e-05   0.0000000e+00   2.5461308e-05  -3.0112113e-04   1.5123043e-04   1.6689553e-04   2.0742484e-04  -1.0500161e-04  -7.8626595e-05  -6.5719008e-05  -1.7734949e-05  -4.5236041e-04  -5.4425987e-05   2.7435009e-05  -6.7736903e-05  -4.6935349e-04  -1.4603640e-04   6.0561724e-05  -1.7247350e-04  -1.5194396e-04  -1.1551633e-05  -2.2578802e-04  -3.0427946e-04  -1.9279671e-04   1.7340557e-04  -1.2077884e-04   3.7055682e-06  -6.9554517e-06   3.2611296e-05   0.0000000e+00  -2.0519512e-04  -5.8138416e-04   0.0000000e+00   0.0000000e+00   1.7557194e-04   0.0000000e+00  -2.4800765e-04  -5.3215993e-04   5.7283202e-06   0.0000000e+00  -1.6421352e-04  -1.7618320e-04  -2.1570037e-04  -1.5395864e-05  -1.1666821e-05  -1.1782908e-05  -8.4844766e-05  -5.4572742e-05   1.0208056e-05  -3.9737031e-05  -1.2688621e-04   4.4337565e-05   5.9877744e-05   8.7843273e-05   3.4430636e-05   2.2416922e-06   3.8112832e-05  -6.7751310e-05   3.0551678e-05   6.0354918e-05   6.7954776e-05   5.1400673e-05   6.6735559e-05   4.7252648e-05  -9.1960767e-05  -6.0368251e-06   2.1307579e-06   0.0000000e+00   5.7917845e-06  -1.0450361e-04   0.0000000e+00   0.0000000e+00   8.7087018e-05   0.0000000e+00   1.9075548e-05  -2.5308431e-05   2.5551636e-06   0.0000000e+00  -6.5506203e-05   1.1671868e-04   5.6021687e-05  -9.9247033e-05  -6.4331542e-05   5.5191632e-05  -7.4727985e-05   6.2033362e-05   1.4611206e-05   4.2153484e-05  -6.3922868e-05   4.8183603e-05   6.1870795e-05   1.2442745e-04   3.8331356e-05   5.4072265e-05   7.5820590e-05  -6.2013847e-05   3.7653365e-05   8.3075383e-06   1.1360948e-04   6.5572033e-05  -3.8082250e-05  -3.3820008e-05   4.1390905e-05   9.0153815e-06   5.3516871e-06   0.0000000e+00  -5.8484238e-05  -1.7259502e-04   0.0000000e+00   0.0000000e+00   8.3113522e-05   0.0000000e+00  -3.2197931e-05  -8.0836853e-05   1.0531906e-05   0.0000000e+00  -2.2528732e-06   1.9337871e-04   1.3914858e-04  -3.2155423e-05  -3.4919468e-05   3.2884653e-05  -3.3439149e-05  -2.5420193e-08  -1.2175586e-05  -6.2707544e-06  -1.0373068e-04   2.3087738e-06  -1.1517071e-05   3.3073860e-05  -1.9071058e-05  -4.9308304e-05  -3.4090959e-05  -7.4036431e-05  -4.2697115e-06  -3.3074099e-05   4.9778411e-05   2.5031957e-05  -5.9949339e-05   8.4523567e-06  -5.1107471e-05  -2.0352958e-05  -1.9792324e-05   0.0000000e+00   9.7703867e-06   1.7626165e-05   0.0000000e+00   0.0000000e+00  -1.2208771e-05   0.0000000e+00   2.2585666e-05   3.3072092e-05   3.3076661e-06   0.0000000e+00   2.3916575e-05   4.0925486e-05   2.0718808e-05  -1.0965244e-04  -5.6920191e-05   1.0825677e-04  -1.6163152e-04   4.2609703e-05   6.3633889e-05  -4.2831827e-05  -2.4424593e-04   7.7825516e-05   1.7347393e-04   2.1208762e-04   1.6164373e-04  -6.8668876e-05  -7.5530158e-05  -1.2518459e-04   1.0676507e-04   4.5673245e-05   2.3955008e-04   1.9826142e-04  -1.7561711e-04   1.6622699e-04   1.5079854e-05   5.8215641e-05   6.1632850e-05   0.0000000e+00   1.3849030e-04   8.2085391e-05   0.0000000e+00   0.0000000e+00   1.0149948e-04   0.0000000e+00   1.8893457e-04   1.9386080e-04  -5.4656394e-05   0.0000000e+00  -1.3372546e-04  -2.2138696e-04   6.9534427e-05  -3.0834370e-05  -1.2726829e-05  -2.2098875e-05  -2.4619836e-05  -1.2352895e-06  -1.6202928e-05  -2.1789699e-04  -2.9311370e-04   4.9883622e-05  -1.5209008e-05  -5.2310340e-05  -1.0458774e-05  -3.8550281e-06  -2.1152606e-04  -1.6763259e-04  -2.1042286e-05   3.2850066e-06  -4.1612456e-05  -4.6938608e-05   7.8122599e-07  -1.6304524e-05   2.9103671e-05  -2.7593256e-06   2.0429239e-05   0.0000000e+00  -3.3825097e-05  -1.9518211e-04   0.0000000e+00   0.0000000e+00   7.0825004e-05   0.0000000e+00  -5.3847966e-05  -1.2605176e-04  -7.2481084e-06   0.0000000e+00  -2.6283052e-05  -9.9717177e-05  -1.3761374e-04   6.6216779e-05   8.8207521e-05   5.1370454e-05   4.6150887e-05   5.9246170e-05   1.2505126e-04   1.2304296e-04   2.0170872e-04  -4.6113793e-06   8.8478224e-05   1.2266155e-04   9.6454986e-05   1.4105102e-04   2.0186184e-04   1.4318313e-04   2.0116023e-05   1.0362572e-04   1.5280891e-04   1.1163424e-04   2.9481890e-04   4.0343666e-05   3.7515784e-05   3.1650594e-05  -1.6460808e-06   0.0000000e+00  -3.7174032e-06  -1.5162621e-04   0.0000000e+00   0.0000000e+00  -7.1596462e-05   0.0000000e+00  -1.6824732e-05  -6.6920791e-05   2.4211333e-05   0.0000000e+00   3.7203586e-05   6.0619507e-06   1.5504347e-04  -7.8360138e-05  -1.2185602e-04   2.7245593e-05   8.5326722e-05   5.1410541e-05  -1.0075641e-04  -1.0569322e-04  -3.4010626e-04  -6.0700088e-07  -6.8771136e-05   5.1074119e-05  -8.4601225e-05  -3.0947315e-05   4.9071424e-05  -1.7230772e-04  -3.1927366e-05  -4.0030071e-05  -5.0291134e-05  -3.7584026e-05  -3.5769928e-04  -2.2050521e-04   9.7491480e-05  -5.8690274e-05   1.4166818e-04   0.0000000e+00  -1.6823536e-04  -1.1164468e-04   0.0000000e+00   0.0000000e+00  -1.1517069e-05   0.0000000e+00  -7.2315838e-05  -9.0224824e-05   3.1634242e-05   0.0000000e+00  -1.2783145e-04   7.0085744e-05   3.3889487e-04   9.5050351e-07  -9.6476427e-06  -1.7284483e-04  -4.6101676e-05  -9.3810419e-05  -6.5386832e-05  -3.2929835e-04  -3.0558366e-04  -1.1497677e-04  -1.7607534e-04  -1.8884664e-04  -6.8348071e-05  -9.1050888e-05  -1.2036325e-04  -1.3749884e-04  -1.9101753e-04  -1.3940189e-04  -9.7818851e-05  -8.4959363e-05   6.7187283e-05  -1.3756039e-04  -9.9077272e-05  -6.4770074e-05  -1.1415367e-04   0.0000000e+00  -2.0668171e-04  -2.4109931e-04   0.0000000e+00   0.0000000e+00  -1.6251381e-04   0.0000000e+00  -9.9797084e-05  -2.3439803e-04  -4.0418524e-05   0.0000000e+00  -8.9510616e-05   6.7628847e-05   1.4690420e-05
  -1.2079568e-04  -8.9623709e-05  -8.7499067e-05  -1.1019389e-04  -3.1058442e-05  -9.4564086e-05   9.1190594e-06   3.1645742e-05  -1.2191845e-04  -1.6524131e-04  -1.3038771e-04  -1.2707237e-04  -1.5217528e-04  -4.4915518e-05  -2.4091749e-05  -9.2653110e-05  -1.7468889e-04  -1.2627243e-04  -9.5885393e-05  -2.9041007e-04  -9.6030012e-05  -1.0000681e-05  -8.6375607e-05  -8.1568259e-05   0.0000000e+00  -3.8962651e-05   1.0834194e-04   0.0000000e+00   0.0000000e+00  -1.1483000e-04   0.0000000e+00   5.7470750e-08   3.0874122e-05  -5.1655656e-05   0.0000000e+00  -1.3189300e-05  -3.6376847e-05  -1.2055017e-05  -2.7461517e-04  -3.2758693e-04  -9.5136898e-05  -1.9194422e-04  -7.1748281e-05  -1.6410486e-04  -1.8402847e-04  -6.3649436e-05  -8.8864738e-05  -1.9102108e-04  -2.3089652e-04  -2.0792963e-04   4.3180682e-05   1.1431214e-04  -1.5843915e-04  -1.4791243e-04  -1.4988920e-04  -1.8924542e-04  -1.6016458e-04  -5.6434859e-04  -1.4093235e-04  -1.6595796e-04  -1.9827108e-04  -1.1855776e-04   0.0000000e+00  -7.1245636e-05   2.0941424e-04   0.0000000e+00   0.0000000e+00   1.0973207e-04   0.0000000e+00   2.6739111e-05   9.5039240e-05  -5.6983308e-05   0.0000000e+00   2.2287029e-05  -3.1738756e-04   1.7246898e-04   1.4014151e-04   1.7838094e-04  -1.2618244e-04  -9.0917601e-05  -7.6111404e-05  -3.9875636e-05  -5.5419716e-04  -1.2779116e-04   3.4134820e-05  -8.4301566e-05  -5.3285165e-04  -1.7647002e-04   7.2470430e-05  -2.2188261e-04  -1.8885466e-04  -1.3207336e-05  -2.3709725e-04  -3.7682747e-04  -2.3584014e-04   1.2123934e-04  -1.3912434e-04  -7.7670090e-06  -2.0923500e-05   4.1950361e-05   0.0000000e+00  -2.1366550e-04  -6.4379826e-04   0.0000000e+00   0.0000000e+00   2.4232670e-04   0.0000000e+00  -2.7479921e-04  -5.8468344e-04  -1.2210932e-05   0.0000000e+00  -2.4493992e-04  -2.5340323e-04  -3.2604566e-04  -1.4391339e-05  -1.2932062e-05  -4.3788353e-06  -8.0026136e-05  -4.3642621e-05   1.4862972e-05  -3.9377979e-05  -1.3477717e-04   5.2677724e-05   6.6277708e-05   9.6271558e-05   4.0382258e-05   7.8882258e-06   4.2089702e-05  -7.4262952e-05   3.3697598e-05   6.6540216e-05   7.8474701e-05   5.9985094e-05   7.7763892e-05   5.4173041e-05  -9.3190546e-05  -4.4381904e-06   3.6765020e-06   0.0000000e+00   1.1809051e-05  -1.1255010e-04   0.0000000e+00   0.0000000e+00   1.0130598e-04   0.0000000e+00   1.9878547e-05  -2.5650078e-05   4.3097646e-06   0.0000000e+00  -6.2600051e-05   1.2411893e-04   4.7833470e-05  -9.9626634e-05  -6.2292085e-05   6.7620334e-05  -7.0364354e-05   7.3699703e-05   2.4443643e-05   2.6012114e-05  -7.0711944e-05   6.1586805e-05   8.0891737e-05   1.4497251e-04   5.2536931e-05   6.8929107e-05   7.9771229e-05  -6.9111510e-05   4.7196748e-05   2.2292506e-05   1.3052094e-04   7.8389939e-05  -1.6320717e-05  -3.0074360e-05   5.1834118e-05   1.7214759e-05   1.3125179e-05   0.0000000e+00  -5.7747415e-05  -1.9764116e-04   0.0000000e+00   0.0000000e+00   1.0321632e-04   0.0000000e+00  -3.5028058e-05  -9.3416680e-05   1.4561732e-05   0.0000000e+00   4.8711996e-08   2.1520146e-04   1.4147143e-04  -3.3647079e-05  -3.8237290e-05   3.5687690e-05  -3.4974391e-05   7.8880102e-07  -1.1606246e-05  -9.6276710e-06  -1.2052782e-04   7.1186008e-06  -7.8103512e-06   4.0554911e-05  -1.6824990e-05  -4.7944590e-05  -3.7021447e-05  -8.0560793e-05  -3.9840184e-06  -3.0007822e-05   5.6727374e-05   2.7667459e-05  -5.8033779e-05   9.2797329e-06  -5.1975711e-05  -1.8550350e-05  -1.5929405e-05   0.0000000e+00   8.8717770e-06   6.7292716e-06   0.0000000e+00   0.0000000e+00  -8.3743755e-06   0.0000000e+00   2.0662988e-05   2.9086683e-05   5.5668359e-06   0.0000000e+00   2.6789981e-05   5.0627915e-05   2.0952079e-05  -7.9239643e-05  -2.9461993e-05   1.6863621e-04  -1.2775562e-04   8.4131752e-05   1.1417209e-04  -2.5021144e-05  -2.5259998e-04   1.1940383e-04   2.5166424e-04   2.9521065e-04   2.3275445e-04  -4.6784749e-05  -7.3034154e-05  -1.2483961e-04   1.5953334e-04   1.0697090e-04   3.2010721e-04   2.7441145e-04  -9.6145205e-05   2.3065578e-04   3.9505448e-05   9.6081398e-05   9.2567043e-05   0.0000000e+00   1.9644436e-04   1.3874885e-04   0.0000000e+00   0.0000000e+00   8.1870154e-05   0.0000000e+00   2.2791390e-04   2.4748997e-04  -4.0319840e-05   0.0000000e+00  -1.2747892e-04  -2.2499617e-04   8.8046966e-05  -2.7718191e-05  -1.0541227e-05  -2.3028771e-05  -1.9995584e-05   1.9647588e-06  -1.6696805e-05  -2.4832966e-04  -3.3010112e-04   6.1980466e-05  -1.0787446e-05  -5.2403664e-05  -7.0377517e-06   4.1787490e-06  -2.3872333e-04  -1.8881602e-04  -2.3093865e-05   1.1099217e-05  -4.6934431e-05  -5.3052816e-05   3.7035805e-06  -1.6506905e-05   2.9019720e-05  -2.3944482e-06   2.2945832e-05   0.0000000e+00  -3.4915177e-05  -2.1806225e-04   0.0000000e+00   0.0000000e+00   9.4943140e-05   0.0000000e+00  -5.7674929e-05  -1.3961130e-04  -5.9653131e-06   0.0000000e+00  -2.4026737e-05  -1.1352940e-04  -1.5141039e-04   7.3900798e-05   9.6699655e-05   6.3643976e-05   4.5947451e-05   7.2054176e-05   1.3728006e-04   1.2143362e-04   1.8329224e-04   1.2798416e-05   9.9906069e-05   1.2661953e-04   1.0077173e-04   1.5637560e-04   2.0239415e-04   1.3628561e-04   3.3958160e-05   1.1604664e-04   1.6488422e-04   1.1890523e-04   3.1694753e-04   4.1941038e-05   5.5408608e-05   3.9503706e-05   3.5904222e-06   0.0000000e+00  -8.4071726e-06  -1.7914811e-04   0.0000000e+00   0.0000000e+00  -6.8602754e-05   0.0000000e+00  -2.5411824e-05  -8.4377974e-05   2.8019509e-05   0.0000000e+00   4.4754922e-05   5.7390292e-06   1.6388392e-04  -1.0550737e-04  -1.4930032e-04   1.5716741e-05   6.3196151e-05   4.6876275e-05  -1.1694462e-04  -1.3384035e-04  -3.9776591e-04  -1.2889907e-05  -9.2072835e-05   4.8827699e-05  -9.4039827e-05  -2.3758473e-05   5.9236009e-05  -1.9738158e-04  -5.4972400e-05  -5.2432492e-05  -6.4607053e-05  -5.0455709e-05  -3.9713183e-04  -2.5652981e-04   8.6447506e-05  -7.3300895e-05   1.3392710e-04   0.0000000e+00  -2.0718656e-04  -1.6425444e-04   0.0000000e+00   0.0000000e+00   3.5398494e-06   0.0000000e+00  -9.2948144e-05  -1.2073783e-04   2.9454277e-05   0.0000000e+00  -1.3028196e-04   9.2686968e-05   3.8899511e-04   1.9432382e-05   1.1033088e-05  -1.9966219e-04  -3.2595320e-05  -1.1143902e-04  -6.9358737e-05  -3.4723259e-04  -2.9626456e-04  -1.3134705e-04  -1.7254777e-04  -2.1951909e-04  -7.3685848e-05  -1.0071516e-04  -1.2613876e-04  -1.2266177e-04  -1.8932050e-04  -1.3691295e-04  -1.2350433e-04  -1.0451385e-04   1.2404947e-04  -1.4554552e-04  -9.6562346e-05  -5.8995197e-05  -1.1495218e-04   0.0000000e+00  -2.3499629e-04  -2.9466471e-04   0.0000000e+00   0.0000000e+00  -1.7758223e-04   0.0000000e+00  -1.1769311e-04  -2.8503456e-04  -3.7381557e-05   0.0000000e+00  -8.6782470e-05   9.4039409e-05   2.4289380e-05
  -1.2552218e-04  -9.3310360e-05  -9.2804445e-05  -1.1837260e-04  -3.3616494e-05  -9.7968853e-05   1.2427121e-05   2.5610645e-05  -1.2968643e-04  -1.6912015e-04  -1.2868368e-04  -1.2939707e-04  -1.6262474e-04  -5.1359466e-05  -2.7409125e-05  -9.7022934e-05  -1.8179831e-04  -1.2584810e-04  -9.8375739e-05  -3.0280751e-04  -9.7991540e-05  -1.4127570e-05  -8.9531825e-05  -8.4642114e-05   0.0000000e+00  -3.9495748e-05   1.0955879e-04   0.0000000e+00   0.0000000e+00  -1.1704439e-04   0.0000000e+00   2.7474333e-06   3.4566481e-05  -5.3446466e-05   0.0000000e+00  -1.1919788e-05  -3.9659819e-05  -1.3254742e-05  -3.0396178e-04  -3.5942669e-04  -1.1942295e-04  -2.0735247e-04  -8.3961065e-05  -1.8658275e-04  -2.2270106e-04  -1.0534065e-04  -1.0077416e-04  -2.1625840e-04  -2.4106498e-04  -2.2837618e-04   5.8177068e-05   1.1930131e-04  -1.9096885e-04  -1.8062756e-04  -1.6406024e-04  -2.0185794e-04  -1.7661374e-04  -6.0267633e-04  -1.6010738e-04  -1.7322454e-04  -2.1215785e-04  -1.2441405e-04   0.0000000e+00  -9.7233436e-05   1.4455958e-04   0.0000000e+00   0.0000000e+00   1.6646219e-04   0.0000000e+00   5.2050284e-06   5.6068805e-05  -5.9201040e-05   0.0000000e+00   1.7133458e-05  -3.2663727e-04   1.9359635e-04   1.0865564e-04   1.4086156e-04  -1.4447884e-04  -1.0009083e-04  -8.3973767e-05  -6.3131810e-05  -6.4367665e-04  -2.0346193e-04   3.9907921e-05  -1.0008935e-04  -5.8025815e-04  -2.0314405e-04   8.0241560e-05  -2.6947732e-04  -2.2395301e-04  -1.3809807e-05  -2.3990421e-04  -4.4244856e-04  -2.7333146e-04   5.1452900e-05  -1.5110140e-04  -1.9969619e-05  -3.6202153e-05   5.2141780e-05   0.0000000e+00  -2.0779490e-04  -6.7524431e-04   0.0000000e+00   0.0000000e+00   3.0378817e-04   0.0000000e+00  -2.8921769e-04  -6.0936182e-04  -3.1755158e-05   0.0000000e+00  -3.2846122e-04  -3.3761915e-04  -4.4602098e-04  -1.1377751e-05  -1.1931111e-05   4.2334217e-06  -7.1292685e-05  -2.9537991e-05   2.0176489e-05  -3.6449519e-05  -1.3842336e-04   6.1201458e-05   7.2002509e-05   1.0371769e-04   4.6489464e-05   1.6152033e-05   4.5946514e-05  -7.8802899e-05   3.6453341e-05   7.1908774e-05   8.8765399e-05   6.8497466e-05   8.9134993e-05   6.0852962e-05  -8.9986074e-05  -2.1091048e-06   5.6544335e-06   0.0000000e+00   1.8708736e-05  -1.1832661e-04   0.0000000e+00   0.0000000e+00   1.1598261e-04   0.0000000e+00   2.0230961e-05  -2.5409400e-05   6.2955457e-06   0.0000000e+00  -5.6798060e-05   1.2827170e-04   3.7133510e-05  -9.6956031e-05  -5.7465777e-05   7.9418199e-05  -6.3330722e-05   8.4470830e-05   3.5072525e-05   8.4282985e-06  -7.5656262e-05   7.4884124e-05   1.0001977e-04   1.6511607e-04   6.7599512e-05   8.4216346e-05   8.2760556e-05  -7.4452465e-05   5.6642020e-05   3.7913454e-05   1.4739601e-04   9.1538831e-05   9.8653201e-06  -2.3940229e-05   6.2367535e-05   2.6184425e-05   2.1618468e-05   0.0000000e+00  -5.4637533e-05  -2.1855696e-04   0.0000000e+00   0.0000000e+00   1.2166377e-04   0.0000000e+00  -3.6175792e-05  -1.0300214e-04   1.8603709e-05   0.0000000e+00   2.4103997e-06   2.3405951e-04   1.3992011e-04  -3.3066895e-05  -3.9333385e-05   3.8528781e-05  -3.4543518e-05   2.6779086e-06  -9.5488632e-06  -1.2662153e-05  -1.3493501e-04   1.2751919e-05  -2.4608623e-06   4.9064809e-05  -1.2475066e-05  -4.4796810e-05  -3.9226024e-05  -8.4959844e-05  -2.4836928e-06  -2.4641812e-05   6.4050438e-05   3.1256504e-05  -5.2660044e-05   1.1390309e-05  -5.0262796e-05  -1.5203638e-05  -1.0564456e-05   0.0000000e+00   9.2053799e-06  -3.6188385e-06   0.0000000e+00   0.0000000e+00  -3.8686081e-06   0.0000000e+00   1.8977918e-05   2.5288568e-05   8.2971242e-06   0.0000000e+00   2.9748155e-05   6.0047693e-05   1.9886090e-05  -4.2100689e-05   3.7403558e-06   2.3428804e-04  -8.4910052e-05   1.2959962e-04   1.6952460e-04  -6.4503808e-06  -2.6105982e-04   1.6457066e-04   3.3423231e-04   3.8163727e-04   3.0820318e-04  -2.2402241e-05  -7.0854508e-05  -1.2422047e-04   2.1490998e-04   1.7342943e-04   4.0278956e-04   3.5410390e-04  -5.5847552e-07   2.9853100e-04   7.0146583e-05   1.3716691e-04   1.2461618e-04   0.0000000e+00   2.5736603e-04   1.9725101e-04   0.0000000e+00   0.0000000e+00   6.0566649e-05   0.0000000e+00   2.6587553e-04   2.9901478e-04  -2.3575838e-05   0.0000000e+00  -1.1808034e-04  -2.2105817e-04   1.0600566e-04  -2.2671320e-05  -7.1587227e-06  -2.1575563e-05  -1.4178576e-05   6.7307366e-06  -1.5469505e-05  -2.7474641e-04  -3.6058157e-04   7.4903789e-05  -4.0739167e-06  -5.0141427e-05  -1.7603441e-06   1.2987014e-05  -2.6188999e-04  -2.0680380e-04  -2.3430590e-05   1.9972072e-05  -4.9396006e-05  -5.6311066e-05   8.2124229e-06  -1.5166288e-05   2.9184961e-05  -1.3408045e-06   2.5499608e-05   0.0000000e+00  -3.3896751e-05  -2.3583276e-04   0.0000000e+00   0.0000000e+00   1.1934206e-04   0.0000000e+00  -5.9561424e-05  -1.4962622e-04  -3.8767386e-06   0.0000000e+00  -2.1025225e-05  -1.2593986e-04  -1.6286580e-04   8.0846001e-05   1.0345755e-04   7.6923181e-05   4.4250589e-05   8.4650809e-05   1.4731304e-04   1.1836901e-04   1.6223130e-04   3.1440932e-05   1.1063835e-04   1.2686538e-04   1.0255397e-04   1.7021846e-04   2.0019248e-04   1.2750091e-04   4.8754036e-05   1.2606362e-04   1.7353520e-04   1.2339901e-04   3.3328775e-04   4.2686420e-05   7.3808464e-05   4.6954095e-05   9.0279273e-06   0.0000000e+00  -1.3611658e-05  -2.0457476e-04   0.0000000e+00   0.0000000e+00  -6.3387697e-05   0.0000000e+00  -3.4539138e-05  -1.0143487e-04   3.1287189e-05   0.0000000e+00   5.1800275e-05   4.3829489e-06   1.6726858e-04  -1.3036118e-04  -1.7566177e-04   3.1717609e-06   3.4709337e-05   4.1007309e-05  -1.3168528e-04  -1.6278557e-04  -4.5051439e-04  -2.6518485e-05  -1.1645725e-04   4.4556156e-05  -1.0182515e-04  -1.4148018e-05   6.9465132e-05  -2.1887176e-04  -7.9609005e-05  -6.5804313e-05  -7.8757407e-05  -6.2954823e-05  -4.3253307e-04  -2.8857640e-04   7.3968093e-05  -8.8001170e-05   1.2418760e-04   0.0000000e+00  -2.4385670e-04  -2.1503717e-04   0.0000000e+00   0.0000000e+00   2.1830648e-05   0.0000000e+00  -1.1259256e-04  -1.4980252e-04   2.5590256e-05   0.0000000e+00  -1.3021680e-04   1.1503256e-04   4.3589713e-04   4.2311987e-05   3.6650458e-05  -2.2375286e-04  -1.3845006e-05  -1.2782200e-04  -6.9974851e-05  -3.5751401e-04  -2.7480568e-04  -1.4551530e-04  -1.6033415e-04  -2.4581305e-04  -7.5496852e-05  -1.0771350e-04  -1.2775983e-04  -1.0125939e-04  -1.7998219e-04  -1.2770363e-04  -1.4816814e-04  -1.2256881e-04   1.9002808e-04  -1.4886833e-04  -8.9975788e-05  -4.9093994e-05  -1.1176636e-04   0.0000000e+00  -2.5951455e-04  -3.4805575e-04   0.0000000e+00   0.0000000e+00  -1.8889986e-04   0.0000000e+00  -1.3464610e-04  -3.3583775e-04  -3.2175162e-05   0.0000000e+00  -8.0727328e-05   1.2245583e-04   3.5282726e-05
  -1.2807182e-04  -9.5851437e-05  -9.7285694e-05  -1.2556857e-04  -3.6668231e-05  -9.9257329e-05   1.5725364e-05   1.8312795e-05  -1.3564166e-04  -1.6910596e-04  -1.2329891e-04  -1.2842838e-04  -1.7031389e-04  -5.6904617e-05  -3.0156218e-05  -9.9618650e-05  -1.8490013e-04  -1.2238939e-04  -9.8714794e-05  -3.0823073e-04  -9.7469370e-05  -2.0450452e-05  -9.0941970e-05  -8.6339074e-05   0.0000000e+00  -3.8981042e-05   1.0784774e-04   0.0000000e+00   0.0000000e+00  -1.1684705e-04   0.0000000e+00   5.8690924e-06   3.7627682e-05  -5.4131886e-05   0.0000000e+00  -1.0187567e-05  -4.2335291e-05  -1.3847590e-05  -3.2698922e-04  -3.8467836e-04  -1.4536794e-04  -2.1997324e-04  -9.6816652e-05  -2.0616817e-04  -2.6104647e-04  -1.4740672e-04  -1.1076422e-04  -2.3874496e-04  -2.4587159e-04  -2.4416305e-04   7.4815653e-05   1.2130399e-04  -2.2148135e-04  -2.1183611e-04  -1.7451568e-04  -2.1014889e-04  -1.8979425e-04  -6.2777576e-04  -1.7617433e-04  -1.7655044e-04  -2.2113020e-04  -1.2760478e-04   0.0000000e+00  -1.2314492e-04   6.5630032e-05   0.0000000e+00   0.0000000e+00   2.3325708e-04   0.0000000e+00  -1.9227281e-05   8.7319614e-06  -5.9634493e-05   0.0000000e+00   1.0138373e-05  -3.2882682e-04   2.1409874e-04   7.4006924e-05   9.6209474e-05  -1.5954594e-04  -1.0626349e-04  -8.8967751e-05  -8.6782634e-05  -7.1849119e-04  -2.8006822e-04   4.3949563e-05  -1.1566522e-04  -6.0795708e-04  -2.2472802e-04   8.3674939e-05  -3.1293324e-04  -2.5739156e-04  -1.4085144e-05  -2.3417895e-04  -4.9734440e-04  -3.0271503e-04  -3.5436295e-05  -1.5523231e-04  -3.2604458e-05  -5.2765143e-05   6.2678246e-05   0.0000000e+00  -1.8631842e-04  -6.7128438e-04   0.0000000e+00   0.0000000e+00   3.5653840e-04   0.0000000e+00  -2.8914210e-04  -6.0234728e-04  -5.2328103e-05   0.0000000e+00  -4.1223613e-04  -4.2615492e-04  -5.6998708e-04  -6.1360943e-06  -8.2820892e-06   1.3670137e-05  -5.9051279e-05  -1.3070671e-05   2.5991622e-05  -3.0736388e-05  -1.3754399e-04   6.9813596e-05   7.7098028e-05   1.1010264e-04   5.2587772e-05   2.7198337e-05   4.9872119e-05  -8.0975128e-05   3.8832744e-05   7.6450626e-05   9.8592175e-05   7.6646063e-05   1.0087002e-04   6.7114778e-05  -8.2401235e-05   9.3899914e-07   8.1248982e-06   0.0000000e+00   2.6139942e-05  -1.2192132e-04   0.0000000e+00   0.0000000e+00   1.3096700e-04   0.0000000e+00   2.0076235e-05  -2.4716199e-05   8.4628354e-06   0.0000000e+00  -4.8363301e-05   1.2933170e-04   2.4675567e-05  -9.1229091e-05  -4.9746101e-05   9.0304308e-05  -5.3862347e-05   9.4012292e-05   4.6268473e-05  -9.1716140e-06  -7.8421124e-05   8.7766704e-05   1.1877812e-04   1.8462988e-04   8.3193852e-05   9.9504788e-05   8.5018641e-05  -7.7656583e-05   6.5902843e-05   5.4754825e-05   1.6419844e-04   1.0489347e-04   3.9766658e-05  -1.5484537e-05   7.2902596e-05   3.5750133e-05   3.0608542e-05   0.0000000e+00  -4.9223730e-05  -2.3436563e-04   0.0000000e+00   0.0000000e+00   1.3710097e-04   0.0000000e+00  -3.5449601e-05  -1.0894179e-04   2.2627476e-05   0.0000000e+00   4.7939077e-06   2.4973154e-04   1.3490338e-04  -3.0177060e-05  -3.7839286e-05   4.1476941e-05  -3.1941530e-05   5.7556773e-06  -5.9091151e-06  -1.5365463e-05  -1.4655983e-04   1.9051472e-05   4.3774837e-06   5.8580602e-05  -5.9760146e-06  -3.9977688e-05  -4.0758030e-05  -8.7220250e-05   3.3939430e-07  -1.7019443e-05   7.1767568e-05   3.6009667e-05  -4.3858083e-05   1.5032009e-05  -4.5832157e-05  -1.0352661e-05  -3.8626758e-06   0.0000000e+00   1.1067854e-05  -1.2683193e-05   0.0000000e+00   0.0000000e+00   1.2295681e-06   0.0000000e+00   1.7853669e-05   2.2117385e-05   1.1444880e-05   0.0000000e+00   3.2658792e-05   6.8713942e-05   1.7589063e-05   5.7564042e-07   4.1857417e-05   3.0281038e-04  -3.4983660e-05   1.7687299e-04   2.2765040e-04   1.1538954e-05  -2.7024507e-04   2.1185014e-04   4.1835010e-04   4.6802139e-04   3.8528023e-04   3.3580413e-06  -6.9267784e-05  -1.2368250e-04   2.7085037e-04   2.4246325e-04   4.8428622e-04   4.3410431e-04   1.0835888e-04   3.6749937e-04   1.0647336e-04   1.8011239e-04   1.5666004e-04   0.0000000e+00   3.1868316e-04   2.5363598e-04   0.0000000e+00   0.0000000e+00   3.9208912e-05   0.0000000e+00   3.0117944e-04   3.4550011e-04  -5.3159278e-06   0.0000000e+00  -1.0678072e-04  -2.0974443e-04   1.2321208e-04  -1.5820604e-05  -2.6064003e-06  -1.7479894e-05  -7.4124942e-06   1.3032219e-05  -1.2357923e-05  -2.9610711e-04  -3.8311363e-04   8.8311748e-05   4.8517020e-06  -4.5647482e-05   5.3580624e-06   2.2445956e-05  -2.7994466e-04  -2.2081576e-04  -2.1837056e-05   2.9551763e-05  -4.8626780e-05  -5.6286893e-05   1.4491627e-05  -1.2166610e-05   2.9971518e-05   5.0618975e-07   2.8126809e-05   0.0000000e+00  -3.0668127e-05  -2.4782889e-04   0.0000000e+00   0.0000000e+00   1.4312862e-04   0.0000000e+00  -5.9420629e-05  -1.5578648e-04  -9.8391241e-07   0.0000000e+00  -1.7508201e-05  -1.3632720e-04  -1.7182648e-04   8.6859707e-05   1.0827189e-04   9.0835896e-05   4.1181335e-05   9.6405300e-05   1.5479580e-04   1.1481382e-04   1.4121584e-04   5.0222244e-05   1.2032449e-04   1.2319636e-04   1.0170709e-04   1.8250176e-04   1.9647239e-04   1.1828081e-04   6.3672634e-05   1.3304951e-04   1.7826674e-04   1.2474804e-04   3.4357250e-04   4.2505748e-05   9.1647628e-05   5.3518246e-05   1.4231354e-05   0.0000000e+00  -1.9331179e-05  -2.2707971e-04   0.0000000e+00   0.0000000e+00  -5.6257986e-05   0.0000000e+00  -4.3951830e-05  -1.1756189e-04   3.3729581e-05   0.0000000e+00   5.7991633e-05   1.8853710e-06   1.6463521e-04  -1.5134083e-04  -1.9986799e-04  -9.5360368e-06   1.8943008e-06   3.4424857e-05  -1.4438178e-04  -1.9075307e-04  -4.9542889e-04  -4.0962275e-05  -1.4095769e-04   3.8272757e-05  -1.0770180e-04  -2.8744543e-06   7.9522274e-05  -2.3548021e-04  -1.0461380e-04  -7.9856020e-05  -9.2231798e-05  -7.4465845e-05  -4.6302920e-04  -3.1545490e-04   6.1089698e-05  -1.0232450e-04   1.1359313e-04   0.0000000e+00  -2.7677652e-04  -2.6087628e-04   0.0000000e+00   0.0000000e+00   4.2311815e-05   0.0000000e+00  -1.3031115e-04  -1.7575318e-04   2.0175198e-05   0.0000000e+00  -1.2789289e-04   1.3591966e-04   4.7796118e-04   6.8914161e-05   6.6351208e-05  -2.4437877e-04   9.4570540e-06  -1.4242546e-04  -6.6992232e-05  -3.6053864e-04  -2.4247756e-04  -1.5707879e-04  -1.3998211e-04  -2.6657129e-04  -7.3441423e-05  -1.1161699e-04  -1.2497637e-04  -7.4608488e-05  -1.6372625e-04  -1.1222720e-04  -1.7070428e-04  -1.3819262e-04   2.6314628e-04  -1.4726709e-04  -7.9883784e-05  -3.5368306e-05  -1.0496414e-04   0.0000000e+00  -2.7932618e-04  -3.9966501e-04   0.0000000e+00   0.0000000e+00  -1.9575887e-04   0.0000000e+00  -1.5005918e-04  -3.8529398e-04  -2.5010999e-05   0.0000000e+00  -7.1671583e-05   1.5193430e-04   4.7352666e-05
  -1.2855728e-04  -9.7342229e-05  -1.0083074e-04  -1.3171777e-04  -4.0015970e-05  -9.8349465e-05   1.8775675e-05   9.9365435e-06  -1.3966050e-04  -1.6531096e-04  -1.1436466e-04  -1.2413014e-04  -1.7508838e-04  -6.1383645e-05  -3.2332517e-05  -1.0036050e-04  -1.8391985e-04  -1.1596845e-04  -9.6719341e-05  -3.0653589e-04  -9.4368971e-05  -2.8681657e-05  -9.0597551e-05  -8.6726791e-05   0.0000000e+00  -3.7280727e-05   1.0352625e-04   0.0000000e+00   0.0000000e+00  -1.1438641e-04   0.0000000e+00   9.4378719e-06   4.0040654e-05  -5.3731636e-05   0.0000000e+00  -8.0545322e-06  -4.4313587e-05  -1.3708068e-05  -3.4236983e-04  -4.0213770e-04  -1.7212322e-04  -2.2937849e-04  -1.1005567e-04  -2.2182896e-04  -2.9730284e-04  -1.8726865e-04  -1.1844793e-04  -2.5733226e-04  -2.4543999e-04  -2.5446328e-04   9.2304523e-05   1.2035901e-04  -2.4826075e-04  -2.4013521e-04  -1.8068751e-04  -2.1391282e-04  -1.9919780e-04  -6.3805666e-04  -1.8816015e-04  -1.7611112e-04  -2.2466156e-04  -1.2811965e-04   0.0000000e+00  -1.4768168e-04  -2.3653944e-05   0.0000000e+00   0.0000000e+00   3.0820580e-04   0.0000000e+00  -4.5437102e-05  -4.4908284e-05  -5.8118884e-05   0.0000000e+00   1.6648157e-06  -3.2427320e-04   2.3345383e-04   3.7662650e-05   4.5904202e-05  -1.7143012e-04  -1.0996168e-04  -9.0993480e-05  -1.1021383e-04  -7.7830957e-04  -3.5727800e-04   4.5657550e-05  -1.3191629e-04  -6.1338660e-04  -2.4022800e-04   8.3287392e-05  -3.5024860e-04  -2.8997667e-04  -1.4999128e-05  -2.2038415e-04  -5.3841844e-04  -3.2191133e-04  -1.3826054e-04  -1.5047596e-04  -4.5421443e-05  -7.0674636e-05   7.3071549e-05   0.0000000e+00  -1.4893532e-04  -6.2981340e-04   0.0000000e+00   0.0000000e+00   3.9831555e-04   0.0000000e+00  -2.7330985e-04  -5.6178597e-04  -7.3398315e-05   0.0000000e+00  -4.9432453e-04  -5.1608678e-04  -6.9174974e-04   1.4142765e-06  -1.7843767e-06   2.3514366e-05  -4.3906174e-05   4.7748838e-06   3.2105130e-05  -2.2157751e-05  -1.3205936e-04   7.8427540e-05   8.1650847e-05   1.1534116e-04   5.8477975e-05   4.1038228e-05   5.4101471e-05  -8.0466342e-05   4.0872993e-05   8.0200744e-05   1.0770328e-04   8.4098729e-05   1.1297666e-04   7.2774320e-05  -7.0763056e-05   4.6546831e-06   1.1127424e-05   0.0000000e+00   3.3689767e-05  -1.2357492e-04   0.0000000e+00   0.0000000e+00   1.4608845e-04   0.0000000e+00   1.9358617e-05  -2.3740423e-05   1.0752800e-05   0.0000000e+00  -3.7695206e-05   1.2767235e-04   1.1285641e-05  -8.2520612e-05  -3.9104001e-05   1.0011324e-04  -4.2272247e-05   1.0209151e-04   5.7826724e-05  -2.5354884e-05  -7.8744699e-05   1.0000945e-04   1.3679124e-04   2.0333584e-04   9.9011222e-05   1.1437763e-04   8.6803897e-05  -7.8426449e-05   7.4973724e-05   7.2377223e-05   1.8090250e-04   1.1834046e-04   7.2573285e-05  -4.8878205e-06   8.3411248e-05   4.5752860e-05   3.9876093e-05   0.0000000e+00  -4.1681787e-05  -2.4439008e-04   0.0000000e+00   0.0000000e+00   1.4833902e-04   0.0000000e+00  -3.2778974e-05  -1.1083493e-04   2.6639783e-05   0.0000000e+00   7.1981523e-06   2.6220870e-04   1.2698043e-04  -2.4862860e-05  -3.3537583e-05   4.4590798e-05  -2.7085782e-05   1.0046288e-05  -7.0075833e-07  -1.7816583e-05  -1.5525949e-04   2.5835676e-05   1.2445557e-05   6.9013293e-05   2.5759026e-06  -3.3688868e-05  -4.1735199e-05  -8.7496952e-05   4.5033631e-06  -7.3075660e-06   7.9866344e-05   4.2051590e-05  -3.1862324e-05   2.0343078e-05  -3.8682423e-05  -4.1313385e-06   3.9467659e-06   0.0000000e+00   1.4624658e-05  -1.9893768e-05   0.0000000e+00   0.0000000e+00   6.8249914e-06   0.0000000e+00   1.7549293e-05   1.9920808e-05   1.4931424e-05   0.0000000e+00   3.5338891e-05   7.6197105e-05   1.4235517e-05   4.7453937e-05   8.3814307e-05   3.7172336e-04   1.9848062e-05   2.2371520e-04   2.8640234e-04   2.7787395e-05  -2.8028108e-04   2.5971470e-04   5.0126624e-04   5.5109768e-04   4.6122226e-04   2.9479553e-05  -6.8274874e-05  -1.2328380e-04   3.2545486e-04   3.1148849e-04   5.6141738e-04   5.1116120e-04   2.2742053e-04   4.3519422e-04   1.4751269e-04   2.2350930e-04   1.8766469e-04   0.0000000e+00   3.7781216e-04   3.0410200e-04   0.0000000e+00   0.0000000e+00   1.8985103e-05   0.0000000e+00   3.3230679e-04   3.8438766e-04   1.3557324e-05   0.0000000e+00  -9.4835973e-05  -1.9155752e-04   1.3971834e-04  -7.3745979e-06   3.0403867e-06  -1.0666464e-05   5.1215226e-08   2.0716355e-05  -7.3235504e-06  -3.1166698e-04  -3.9668226e-04   1.0182144e-04   1.5755171e-05  -3.9212729e-05   1.4186615e-05   3.2516234e-05  -2.9203858e-04  -2.3026339e-04  -1.8237199e-05   3.9462016e-05  -4.4514681e-05  -5.2803756e-05   2.2682269e-05  -7.5029861e-06   3.1711746e-05   3.2107614e-06   3.0865552e-05   0.0000000e+00  -2.5287060e-05  -2.5381351e-04   0.0000000e+00   0.0000000e+00   1.6550018e-04   0.0000000e+00  -5.7313418e-05  -1.5808621e-04   2.6609375e-06   0.0000000e+00  -1.3704993e-05  -1.4413704e-04  -1.7829999e-04   9.1768014e-05   1.1102954e-04   1.0491127e-04   3.6935719e-05   1.0669749e-04   1.5946936e-04   1.1168262e-04   1.2272234e-04   6.8083679e-05   1.2861517e-04   1.1556114e-04   9.8242995e-05   1.9322885e-04   1.9241383e-04   1.0997895e-04   7.7844893e-05   1.3652939e-04   1.7871133e-04   1.2267738e-04   3.4778400e-04   4.1336373e-05   1.0788240e-04   5.8745385e-05   1.8775328e-05   0.0000000e+00  -2.5579757e-05  -2.4603973e-04   0.0000000e+00   0.0000000e+00  -4.7593580e-05   0.0000000e+00  -5.3389784e-05  -1.3234282e-04   3.5086244e-05   0.0000000e+00   6.3015895e-05  -1.8068446e-06   1.5571124e-04  -1.6722650e-04  -2.2102615e-04  -2.1604293e-05  -3.2951757e-05   2.7743834e-05  -1.5457030e-04  -2.1580735e-04  -5.2988961e-04  -5.5705083e-05  -1.6461267e-04   3.0063142e-05  -1.1152026e-04   9.1551392e-06   8.9250020e-05  -2.4611722e-04  -1.2877664e-04  -9.4303417e-05  -1.0457401e-04  -8.4434871e-05  -4.8792845e-04  -3.3630665e-04   4.8715212e-05  -1.1586119e-04   1.0313225e-04   0.0000000e+00  -3.0477699e-04  -2.9901795e-04   0.0000000e+00   0.0000000e+00   6.3745978e-05   0.0000000e+00  -1.4529030e-04  -1.9711633e-04   1.3420847e-05   0.0000000e+00  -1.2360356e-04   1.5418725e-04   5.1372205e-04   9.8299153e-05   9.8985715e-05  -2.6105895e-04   3.6284525e-05  -1.5487074e-04  -6.0405737e-05  -3.5709325e-04  -2.0112066e-04  -1.6585017e-04  -1.1257341e-04  -2.8103377e-04  -6.7456126e-05  -1.1220084e-04  -1.1775261e-04  -4.4337449e-05  -1.4172994e-04  -9.1361246e-05  -1.9018519e-04  -1.5062965e-04   3.4096966e-04  -1.4076132e-04  -6.7118910e-05  -1.8355256e-05  -9.5158072e-05   0.0000000e+00  -2.9381047e-04  -4.4805051e-04   0.0000000e+00   0.0000000e+00  -1.9765667e-04   0.0000000e+00  -1.6342619e-04  -4.3199463e-04  -1.6221228e-05   0.0000000e+00  -6.0071677e-05   1.8151970e-04   6.0138685e-05
  -1.2714008e-04  -9.7853334e-05  -1.0329703e-04  -1.3672853e-04  -4.3358644e-05  -9.5223815e-05   2.1343175e-05   6.8731538e-07  -1.4165298e-04  -1.5798205e-04  -1.0212247e-04  -1.1657443e-04  -1.7690179e-04  -6.4703407e-05  -3.3985334e-05  -9.9216728e-05  -1.7893799e-04  -1.0671874e-04  -9.2242352e-05  -2.9785615e-04  -8.8673794e-05  -3.8278819e-05  -8.8532241e-05  -8.5898639e-05   0.0000000e+00  -3.4273355e-05   9.7060059e-05   0.0000000e+00   0.0000000e+00  -1.0988088e-04   0.0000000e+00   1.3464025e-05   4.1841394e-05  -5.2301737e-05   0.0000000e+00  -5.5922473e-06  -4.5529557e-05  -1.2755439e-05  -3.4910509e-04  -4.1093950e-04  -1.9880492e-04  -2.3521902e-04  -1.2337998e-04  -2.3270946e-04  -3.2960911e-04  -2.2234541e-04  -1.2364447e-04  -2.7105626e-04  -2.4018931e-04  -2.5870983e-04   1.0982703e-04   1.1673466e-04  -2.6963769e-04  -2.6431374e-04  -1.8222642e-04  -2.1323804e-04  -2.0454829e-04  -6.3248396e-04  -1.9530276e-04  -1.7232962e-04  -2.2247622e-04  -1.2608397e-04   0.0000000e+00  -1.6962869e-04  -1.1919514e-04   0.0000000e+00   0.0000000e+00   3.8878741e-04   0.0000000e+00  -7.2252703e-05  -1.0254156e-04  -5.4553256e-05   0.0000000e+00  -7.6836745e-06  -3.1364240e-04   2.5117944e-04   9.5098145e-07  -8.4693644e-06  -1.8052752e-04  -1.1204228e-04  -9.0180865e-05  -1.3292890e-04  -8.2466441e-04  -4.3569699e-04   4.4731779e-05  -1.4993850e-04  -5.9517939e-04  -2.4901225e-04   8.0255762e-05  -3.7987712e-04  -3.2301229e-04  -1.7640999e-05  -1.9940687e-04  -5.6341010e-04  -3.2942221e-04  -2.5516492e-04  -1.3626118e-04  -5.8189584e-05  -9.0018118e-05   8.2921263e-05   0.0000000e+00  -9.6312566e-05  -5.5117346e-04   0.0000000e+00   0.0000000e+00   4.2817957e-04   0.0000000e+00  -2.4140242e-04  -4.8789251e-04  -9.4467451e-05   0.0000000e+00  -5.7345994e-04  -6.0437799e-04  -8.0493675e-04   1.1197521e-05   7.5597831e-06   3.3326567e-05  -2.6631074e-05   2.2886384e-05   3.8276787e-05  -1.0777604e-05  -1.2207949e-04   8.6962603e-05   8.5771194e-05   1.1933179e-04   6.3932764e-05   5.7516610e-05   5.8896263e-05  -7.7061823e-05   4.2627030e-05   8.3225311e-05   1.1582473e-04   9.0489808e-05   1.2542276e-04   7.7648818e-05  -5.5660972e-05   8.9441467e-06   1.4673328e-05   0.0000000e+00   4.0914412e-05  -1.2365693e-04   0.0000000e+00   0.0000000e+00   1.6116294e-04   0.0000000e+00   1.8031825e-05  -2.2685952e-05   1.3099608e-05   0.0000000e+00  -2.5300336e-05   1.2383508e-04  -2.1968185e-06  -7.0993879e-05  -2.5609931e-05   1.0879360e-04  -2.8940828e-05   1.0858123e-04   6.9568029e-05  -3.8771448e-05  -7.6438817e-05   1.1146360e-04   1.5378275e-04   2.2108161e-04   1.1475813e-04   1.2844079e-04   8.8385815e-05  -7.6568345e-05   8.3910982e-05   9.0320448e-05   1.9746216e-04   1.3176746e-04   1.0739253e-04   7.5609310e-06   9.3908104e-05   5.6043805e-05   4.9208561e-05   0.0000000e+00  -3.2283280e-05  -2.4827616e-04   0.0000000e+00   0.0000000e+00   1.5445822e-04   0.0000000e+00  -2.8216552e-05  -1.0854674e-04   3.0673035e-05   0.0000000e+00   9.6508937e-06   2.7165148e-04   1.1680398e-04  -1.7144725e-05  -2.6378488e-05   4.7916747e-05  -2.0027681e-05   1.5483595e-05   5.9545935e-06  -2.0165532e-05  -1.6112727e-04   3.2910862e-05   2.1398002e-05   8.0202362e-05   1.2943107e-05  -2.6218787e-05  -4.2328770e-05  -8.6091388e-05   9.9350773e-06   4.2083092e-06   8.8297446e-05   4.9405032e-05  -1.7104024e-05   2.7338073e-05  -2.8947616e-05   3.2399163e-06   1.2586261e-05   0.0000000e+00   1.9894451e-05  -2.4861293e-05   0.0000000e+00   0.0000000e+00   1.2791806e-05   0.0000000e+00   1.8239459e-05   1.8940538e-05   1.8656267e-05   0.0000000e+00   3.7571299e-05   8.2148681e-05   1.0083619e-05   9.7071355e-05   1.2829204e-04   4.3862793e-04   7.7245175e-05   2.6795225e-04   3.4364376e-04   4.1397754e-05  -2.9080012e-04   3.0665440e-04   5.8044028e-04   6.2785418e-04   5.3336044e-04   5.5095167e-05  -6.7617458e-05  -1.2279896e-04   3.7705828e-04   3.7804158e-04   6.3132449e-04   5.8220769e-04   3.5308586e-04   4.9934046e-04   1.9190383e-04   2.6596285e-04   2.1672488e-04   0.0000000e+00   4.3232631e-04   3.4535246e-04   0.0000000e+00   0.0000000e+00   5.3347473e-07   0.0000000e+00   3.5797407e-04   4.1372229e-04   3.2184303e-05   0.0000000e+00  -8.3382379e-05  -1.6731719e-04   1.5580161e-04   2.3869638e-06   9.6597376e-06  -1.2587847e-06   7.9555112e-06   2.9514470e-05  -4.5897361e-07  -3.2101255e-04  -4.0074896e-04   1.1502756e-04   2.8270377e-05  -3.1289602e-05   2.4476657e-05   4.3237866e-05  -2.9761197e-04  -2.3478604e-04  -1.2699848e-05   4.9321327e-05  -3.7217457e-05  -4.5947687e-05   3.2863877e-05  -1.2883063e-06   3.4663929e-05   6.7851546e-06   3.3740780e-05   0.0000000e+00  -1.7973617e-05  -2.5398923e-04   0.0000000e+00   0.0000000e+00   1.8577583e-04   0.0000000e+00  -5.3444584e-05  -1.5682199e-04   6.9587962e-06   0.0000000e+00  -9.8320423e-06  -1.4892372e-04  -1.8243508e-04   9.5419373e-05   1.1171466e-04   1.1860086e-04   3.1777043e-05   1.1495453e-04   1.6118380e-04   1.0976207e-04   1.0883185e-04   8.4051039e-05   1.3518215e-04   1.0407833e-04   9.2274636e-05   2.0247348e-04   1.8906124e-04   1.0373690e-04   9.0421259e-05   1.3621645e-04   1.7466106e-04   1.1703701e-04   3.4613460e-04   3.9141484e-05   1.2156446e-04   6.2251276e-05   2.2276784e-05   0.0000000e+00  -3.2360840e-05  -2.6106466e-04   0.0000000e+00   0.0000000e+00  -3.7841621e-05   0.0000000e+00  -6.2614785e-05  -1.4547931e-04   3.5138593e-05   0.0000000e+00   6.6611340e-05  -6.6862091e-06   1.4055608e-04  -1.7723819e-04  -2.3848630e-04  -3.2336602e-05  -6.7512909e-05   2.1515283e-05  -1.6195170e-04  -2.3600321e-04  -5.5177024e-04  -7.0269225e-05  -1.8653065e-04   2.0088276e-05  -1.1325593e-04   2.0979617e-05   9.8593912e-05  -2.4998010e-04  -1.5098115e-04  -1.0887270e-04  -1.1539405e-04  -9.2397847e-05  -5.0676923e-04  -3.5063680e-04   3.7560831e-05  -1.2828624e-04   9.3581860e-05   0.0000000e+00  -3.2703232e-04  -3.2720435e-04   0.0000000e+00   0.0000000e+00   8.4818365e-05   0.0000000e+00  -1.5687725e-04  -2.1267899e-04   5.6048939e-06   0.0000000e+00  -1.1766542e-04   1.6878816e-04   5.4200392e-04   1.2931977e-04   1.3318958e-04  -2.7358058e-04   6.5365563e-05  -1.6494400e-04  -5.0439487e-05  -3.4828166e-04  -1.5302043e-04  -1.7184466e-04  -7.9660707e-05  -2.8888275e-04  -5.7749969e-05  -1.0946228e-04  -1.0627330e-04  -1.2262670e-05  -1.1551906e-04  -6.6357048e-05  -2.0591006e-04  -1.5935447e-04   4.2073906e-04  -1.2965721e-04  -5.2712101e-05   1.2035804e-06  -8.3165983e-05   0.0000000e+00  -3.0266644e-04  -4.9198333e-04   0.0000000e+00   0.0000000e+00  -1.9435594e-04   0.0000000e+00  -1.7436641e-04  -4.7468512e-04  -6.2322330e-06   0.0000000e+00  -4.6466458e-05   2.1029775e-04   7.3249247e-05
  -1.2400961e-04  -9.7418738e-05  -1.0452898e-04  -1.4048522e-04  -4.6333539e-05  -8.9920243e-05   2.3220172e-05  -9.2074953e-06  -1.4156987e-04  -1.4748183e-04  -8.6919610e-05  -1.0594169e-04  -1.7581091e-04  -6.6842000e-05  -3.5196168e-05  -9.6203856e-05  -1.7018303e-04  -9.4840238e-05  -8.5195725e-05  -2.8258813e-04  -8.0452245e-05  -4.8515145e-05  -8.4818919e-05  -8.3964807e-05   0.0000000e+00  -2.9874738e-05   8.9016984e-05   0.0000000e+00   0.0000000e+00  -1.0360636e-04   0.0000000e+00   1.7943746e-05   4.3106557e-05  -4.9930152e-05   0.0000000e+00  -2.8779297e-06  -4.5943006e-05  -1.0961859e-05  -3.4658712e-04  -4.1062274e-04  -2.2456593e-04  -2.3725181e-04  -1.3647020e-04  -2.3818947e-04  -3.5609842e-04  -2.5019157e-04  -1.2639316e-04  -2.7920477e-04  -2.3080374e-04  -2.5663292e-04   1.2662635e-04   1.1092202e-04  -2.8408144e-04  -2.8342301e-04  -1.7902061e-04  -2.0851302e-04  -2.0582610e-04  -6.1064541e-04  -1.9710548e-04  -1.6583687e-04  -2.1456740e-04  -1.2174504e-04   0.0000000e+00  -1.8792184e-04  -2.1681052e-04   0.0000000e+00   0.0000000e+00   4.7202057e-04   0.0000000e+00  -9.8521834e-05  -1.6177672e-04  -4.8902501e-05   0.0000000e+00  -1.7080508e-05  -2.9790881e-04   2.6687328e-04  -3.4959101e-05  -6.5246077e-05  -1.8749125e-04  -1.1358411e-04  -8.6862628e-05  -1.5453202e-04  -8.6064350e-04  -5.1667933e-04   4.1235536e-05  -1.7087746e-04  -5.5323888e-04  -2.5083907e-04   7.6310855e-05  -4.0081418e-04  -3.5810400e-04  -2.3100419e-05  -1.7247503e-04  -5.7102136e-04  -3.2442087e-04  -3.8361735e-04  -1.1253953e-04  -7.0660678e-05  -1.1086839e-04   9.1968087e-05   0.0000000e+00  -3.0059995e-05  -4.3812481e-04   0.0000000e+00   0.0000000e+00   4.4650718e-04   0.0000000e+00  -1.9405919e-04  -3.8295152e-04  -1.1506898e-04   0.0000000e+00  -6.4906052e-04  -6.8801021e-04  -9.0339536e-04   2.2969310e-05   1.9539210e-05   4.2656551e-05  -8.1366880e-06   4.0081138e-05   4.4241089e-05   3.1875439e-06  -1.0788014e-04   9.5335445e-05   8.9575107e-05   1.2195254e-04   6.8705296e-05   7.6306328e-05   6.4520665e-05  -7.0665295e-05   4.4154627e-05   8.5608739e-05   1.2265993e-04   9.5435394e-05   1.3810893e-04   8.1561839e-05  -3.7925570e-05   1.3671061e-05   1.8734551e-05   0.0000000e+00   4.7371221e-05  -1.2263011e-04   0.0000000e+00   0.0000000e+00   1.7599505e-04   0.0000000e+00   1.6064278e-05  -2.1778252e-05   1.5432094e-05   0.0000000e+00  -1.1756199e-05   1.1847050e-04  -1.4975862e-05  -5.6906390e-05  -9.4464047e-06   1.1639004e-04  -1.4312610e-05   1.1345139e-04   8.1331325e-05  -4.8237601e-05  -7.1390574e-05   1.2204434e-04   1.6955302e-04   2.3771263e-04   1.3015073e-04   1.4134044e-04   9.0024701e-05  -7.2001583e-05   9.2807307e-05   1.0810797e-04   2.1378714e-04   1.4505153e-04   1.4327467e-04   2.1479142e-05   1.0442317e-04   6.6475666e-05   5.8396012e-05   0.0000000e+00  -2.1383067e-05  -2.4598815e-04   0.0000000e+00   0.0000000e+00   1.5487659e-04   0.0000000e+00  -2.1932949e-05  -1.0220160e-04   3.4766170e-05   0.0000000e+00   1.2193895e-05   2.7833561e-04   1.0505949e-04  -7.1817985e-06  -1.6488017e-05   5.1487534e-05  -1.0954974e-05   2.1921915e-05   1.3835915e-05  -2.2611999e-05  -1.6446776e-04   4.0081905e-05   3.0830927e-05   9.1918535e-05   2.4756353e-05  -1.7936726e-05  -4.2749286e-05  -8.3423978e-05   1.6481152e-05   1.7135251e-05   9.6970256e-05   5.7989403e-05  -1.8730881e-07   3.5902578e-05  -1.6890970e-05   1.1465782e-05   2.1743948e-05   0.0000000e+00   2.6745185e-05  -2.7382254e-05   0.0000000e+00   0.0000000e+00   1.8956340e-05   0.0000000e+00   2.0007043e-05   1.9307069e-05   2.2503718e-05   0.0000000e+00   3.9121720e-05   8.6332874e-05   5.4547269e-06   1.4789071e-04   1.7376956e-04   5.0134947e-04   1.3482152e-04   3.0762690e-04   3.9734949e-04   5.1796844e-05  -3.0099785e-04   3.5125201e-04   6.5364537e-04   6.9567436e-04   5.9924119e-04   7.9511718e-05  -6.6815300e-05  -1.2175857e-04   4.2431915e-04   4.3986668e-04   6.9162512e-04   6.4454157e-04   4.8153785e-04   5.5785614e-04   2.3796855e-04   3.0615007e-04   2.4308382e-04   0.0000000e+00   4.8010844e-04   3.7492630e-04   0.0000000e+00   0.0000000e+00  -1.6110372e-05   0.0000000e+00   3.7723296e-04   4.3231984e-04   4.9785594e-05   0.0000000e+00  -7.3333569e-05  -1.3812483e-04   1.7190351e-04   1.3123187e-05   1.7085687e-05   1.0430977e-05   1.6045459e-05   3.9059770e-05   8.0136444e-06  -3.2407896e-04  -3.9527784e-04   1.2752817e-04   4.1903254e-05  -2.2468124e-05   3.5863382e-05   5.4698612e-05  -2.9642785e-04  -2.3427705e-04  -5.4355901e-06   5.8752080e-05  -2.7154292e-05  -3.6063990e-05   4.5043930e-05   6.2499599e-06   3.8984097e-05   1.1178760e-05   3.6757311e-05   0.0000000e+00  -9.1044708e-06  -2.4897590e-04   0.0000000e+00   0.0000000e+00   2.0343003e-04   0.0000000e+00  -4.8153225e-05  -1.5256506e-04   1.1763162e-05   0.0000000e+00  -6.0740642e-06  -1.5039333e-04  -1.8450807e-04   9.7692506e-05   1.1040327e-04   1.3131048e-04   2.6022598e-05   1.2069612e-04   1.5990342e-04   1.0964137e-04   1.0105979e-04   9.7308172e-05   1.3973830e-04   8.9037990e-05   8.4015536e-05   2.1036003e-04   1.8724584e-04   1.0040016e-04   1.0064185e-04   1.3203918e-04   1.6608312e-04   1.0781624e-04   3.3903040e-04   3.5913767e-05   1.3192196e-04   6.3744073e-05   2.4412623e-05   0.0000000e+00  -3.9658349e-05  -2.7199640e-04   0.0000000e+00   0.0000000e+00  -2.7483226e-05   0.0000000e+00  -7.1400296e-05  -1.5679620e-04   3.3733214e-05   0.0000000e+00   6.8576231e-05  -1.2689878e-05   1.1954892e-04  -1.8108360e-04  -2.5187882e-04  -4.1181807e-05  -9.9683693e-05   1.6176761e-05  -1.6641003e-04  -2.4955140e-04  -5.5958255e-04  -8.4243163e-05  -2.0595283e-04   8.5836211e-06  -1.1300874e-04   3.1677005e-05   1.0760976e-04  -2.4662146e-04  -1.7028447e-04  -1.2332628e-04  -1.2438192e-04  -9.8004115e-05  -5.1936462e-04  -3.5831253e-04   2.8123409e-05  -1.3937359e-04   8.5464083e-05   0.0000000e+00  -3.4308846e-04  -3.4377459e-04   0.0000000e+00   0.0000000e+00   1.0425188e-04   0.0000000e+00  -1.6460988e-04  -2.2154812e-04  -2.9518750e-06   0.0000000e+00  -1.1040195e-04   1.7886876e-04   5.6203493e-04   1.6068740e-04   1.6745156e-04  -2.8198741e-04   9.5243972e-05  -1.7260119e-04  -3.7538457e-05  -3.3541686e-04  -1.0075478e-04  -1.7528035e-04  -4.3149814e-05  -2.9024676e-04  -4.4795596e-05  -1.0362899e-04  -9.0933313e-05   1.9740117e-05  -8.6851286e-05  -3.8756967e-05  -2.1743512e-04  -1.6409482e-04   4.9951136e-04  -1.1453195e-04  -3.7821559e-05   2.2408491e-05  -6.9955304e-05   0.0000000e+00  -3.0592337e-04  -5.3049210e-04   0.0000000e+00   0.0000000e+00  -1.8591798e-04   0.0000000e+00  -1.8262905e-04  -5.1231575e-04   4.4533529e-06   0.0000000e+00  -3.1441300e-05   2.3746050e-04   8.6286869e-05
  -1.1936357e-04  -9.6032353e-05  -1.0437972e-04  -1.4285280e-04  -4.8563276e-05  -8.2542065e-05   2.4245904e-05  -1.9498711e-05  -1.3940391e-04  -1.3426645e-04  -6.9197152e-05  -9.2518243e-05  -1.7196724e-04  -6.7844219e-05  -3.6064599e-05  -9.1387517e-05  -1.5801632e-04  -8.0600800e-05  -7.5570345e-05  -2.6136504e-04  -6.9863150e-05  -5.8558616e-05  -7.9566751e-05  -8.1043982e-05   0.0000000e+00  -2.4053623e-05   8.0014580e-05   0.0000000e+00   0.0000000e+00  -9.5884740e-05   0.0000000e+00   2.2850385e-05   4.3939227e-05  -4.6731016e-05   0.0000000e+00   5.7789295e-09  -4.5538181e-05  -8.3516483e-06  -3.3463535e-04  -4.0116034e-04  -2.4864850e-04  -2.3535947e-04  -1.4899895e-04  -2.3792794e-04  -3.7499460e-04  -2.6862684e-04  -1.2695580e-04  -2.8137685e-04  -2.1817681e-04  -2.4828604e-04   1.4207532e-04   1.0360743e-04  -2.9029186e-04  -2.9682683e-04  -1.7119708e-04  -2.0039892e-04  -2.0326469e-04  -5.7281041e-04  -1.9337471e-04  -1.5741433e-04  -2.0120732e-04  -1.1546313e-04   0.0000000e+00  -2.0171451e-04  -3.1246357e-04   0.0000000e+00   0.0000000e+00   5.5464191e-04   0.0000000e+00  -1.2318255e-04  -2.2028198e-04  -4.1207979e-05   0.0000000e+00  -2.5507838e-05  -2.7828842e-04   2.8025697e-04  -6.9058765e-05  -1.2270149e-04  -1.9316044e-04  -1.1577089e-04  -8.1523537e-05  -1.7472638e-04  -8.9046922e-04  -6.0203691e-04   3.5616212e-05  -1.9578770e-04  -4.8875591e-04  -2.4583417e-04   7.3532545e-05  -4.1264646e-04  -3.9690450e-04  -3.2306761e-05  -1.4107207e-04  -5.6094669e-04  -3.0679284e-04  -5.2047299e-04  -7.9752063e-05  -8.2556097e-05  -1.3322175e-04   1.0014320e-04   0.0000000e+00   4.7374489e-05  -2.9570064e-04   0.0000000e+00   0.0000000e+00   4.5485928e-04   0.0000000e+00  -1.3285407e-04  -2.5118401e-04  -1.3473677e-04   0.0000000e+00  -7.2115877e-04  -7.6409364e-04  -9.8158111e-04   3.6318134e-05   3.3735225e-05   5.1050082e-05   1.0566747e-05   5.5174436e-05   4.9722365e-05   1.9376510e-05  -8.9878496e-05   1.0345308e-04   9.3163842e-05   1.2306383e-04   7.2543582e-05   9.6916584e-05   7.1216821e-05  -6.1303626e-05   4.5513093e-05   8.7438766e-05   1.2789406e-04   9.8556010e-05   1.5085382e-04   8.4352035e-05  -1.8595820e-05   1.8661222e-05   2.3235131e-05   0.0000000e+00   5.2653528e-05  -1.2099821e-04   0.0000000e+00   0.0000000e+00   1.9037771e-04   0.0000000e+00   1.3447315e-05  -2.1248471e-05   1.7676162e-05   0.0000000e+00   2.3268629e-06   1.1227794e-04  -2.6340796e-05  -4.0615434e-05   9.0796707e-06   1.2301931e-04   1.1154503e-06   1.1675453e-04   9.2964773e-05  -5.2821540e-05  -6.3562749e-05   1.3171872e-04   1.8396400e-04   2.5304983e-04   1.4490942e-04   1.5277673e-04   9.1954065e-05  -6.4773217e-05   1.0176307e-04   1.2525041e-04   2.2971465e-04   1.5804576e-04   1.7922891e-04   3.6409136e-05   1.1497810e-04   7.6892855e-05   6.7231183e-05   0.0000000e+00  -9.3972144e-06  -2.3779376e-04   0.0000000e+00   0.0000000e+00   1.4939211e-04   0.0000000e+00  -1.4198147e-05  -9.2163208e-05   3.8952177e-05   0.0000000e+00   1.4868348e-05   2.8259106e-04   9.2411875e-05   4.7348676e-06  -4.1631583e-06   5.5321595e-05  -1.8055215e-07   2.9145907e-05   2.2635579e-05  -2.5376639e-05  -1.6575469e-04   4.7164741e-05   4.0310142e-05   1.0387089e-04   3.7534056e-05  -9.2799917e-06  -4.3227397e-05  -7.9996740e-05   2.3916541e-05   3.0994113e-05   1.0575345e-04   6.7619021e-05   1.8142295e-05   4.5792844e-05  -2.8989453e-06   2.0192856e-05   3.1091902e-05   0.0000000e+00   3.4900506e-05  -2.7436240e-05   0.0000000e+00   0.0000000e+00   2.5086879e-05   0.0000000e+00   2.2835438e-05   2.1038968e-05   2.6350683e-05   0.0000000e+00   3.9761074e-05   8.8650461e-05   6.9980023e-07   1.9833397e-04   2.1858190e-04   5.5805546e-04   1.9027821e-04   3.4112503e-04   4.4570649e-04   5.8778155e-05  -3.0973197e-04   3.9225482e-04   7.1906263e-04   7.5245956e-04   6.5674357e-04   1.0221180e-04  -6.5230696e-05  -1.1952031e-04   4.6626239e-04   4.9500867e-04   7.4054182e-04   6.9598459e-04   6.0878083e-04   6.0894473e-04   2.8384271e-04   3.4287810e-04   2.6615736e-04   0.0000000e+00   5.1947725e-04   3.9144547e-04   0.0000000e+00   0.0000000e+00  -3.1501349e-05   0.0000000e+00   3.8952691e-04   4.3985606e-04   6.5690606e-05   0.0000000e+00  -6.5300155e-05  -1.0531884e-04   1.8854364e-04   2.4448550e-05   2.5108101e-05   2.3922200e-05   2.4066881e-05   4.8911445e-05   1.7756392e-05  -3.2114563e-04  -3.8073357e-04   1.3894563e-04   5.6064669e-05  -1.3452187e-05   4.7883659e-05   6.7007575e-05  -2.8858890e-04  -2.2889060e-04   3.2205117e-06   6.7397873e-05  -1.4975754e-05  -2.3736020e-05   5.9129238e-05   1.4778275e-05   4.4706007e-05   1.6274052e-05   3.9889930e-05   0.0000000e+00   8.0850795e-07  -2.3975108e-04   0.0000000e+00   0.0000000e+00   2.1810898e-04   0.0000000e+00  -4.1887382e-05  -1.4611079e-04   1.6885515e-05   0.0000000e+00  -2.5769485e-06  -1.4842496e-04  -1.8489469e-04   9.8502924e-05   1.0725643e-04   1.4242572e-04   2.0012315e-05   1.2357167e-04   1.5571645e-04   1.1167672e-04   1.0026503e-04   1.0724665e-04   1.4205341e-04   7.0898518e-05   7.3777675e-05   2.1705087e-04   1.8752750e-04   1.0045405e-04   1.0787731e-04   1.2414674e-04   1.5314393e-04   9.5170624e-05   3.2703044e-04   3.1683900e-05   1.3842045e-04   6.3043187e-05   2.4950913e-05   0.0000000e+00  -4.7426969e-05  -2.7890407e-04   0.0000000e+00   0.0000000e+00  -1.7016601e-05   0.0000000e+00  -7.9544461e-05  -1.6623121e-04   3.0794066e-05   0.0000000e+00   6.8784289e-05  -1.9712272e-05   9.3376306e-05  -1.7896804e-04  -2.6113907e-04  -4.7772031e-05  -1.2774172e-04   1.2020370e-05  -1.6802411e-04  -2.5498355e-04  -5.5259703e-04  -9.7291745e-05  -2.2229386e-04  -4.1558304e-06  -1.1100553e-04   4.0453739e-05   1.1646232e-04  -2.3599151e-04  -1.8598599e-04  -1.3746451e-04  -1.3131677e-04  -1.0103522e-04  -5.2582427e-04  -3.5955457e-04   2.0657252e-05  -1.4900489e-04   7.9032103e-05   0.0000000e+00  -3.5286462e-04  -3.4773577e-04   0.0000000e+00   0.0000000e+00   1.2092278e-04   0.0000000e+00  -1.6823994e-04  -2.2319290e-04  -1.1906367e-05   0.0000000e+00  -1.0213164e-04   1.8384980e-04   5.7354505e-04   1.9104151e-04   2.0021190e-04  -2.8656269e-04   1.2438572e-04  -1.7796278e-04  -2.2331436e-05  -3.1990413e-04  -4.7016569e-05  -1.7654367e-04  -5.1840608e-06  -2.8568754e-04  -2.9295787e-05  -9.5138364e-05  -7.2307334e-05   4.9872346e-05  -5.7585689e-05  -1.0292897e-05  -2.2459016e-04  -1.6484655e-04   5.7432952e-04  -9.6197581e-05  -2.3649678e-05   4.4254589e-05  -5.6582836e-05   0.0000000e+00  -3.0393718e-04  -5.6286858e-04   0.0000000e+00   0.0000000e+00  -1.7271931e-04   0.0000000e+00  -1.8811783e-04  -5.4407515e-04   1.5292598e-05   0.0000000e+00  -1.5583423e-05   2.6234354e-04   9.8870397e-05
  -1.1339018e-04  -9.3648472e-05  -1.0272783e-04  -1.4369208e-04  -4.9699479e-05  -7.3257926e-05   2.4324752e-05  -2.9920842e-05  -1.3519593e-04  -1.1886038e-04  -4.9476000e-05  -7.6687428e-05  -1.6560412e-04  -6.7810143e-05  -3.6694652e-05  -8.4878744e-05  -1.4291436e-04  -6.4335714e-05  -6.3457174e-05  -2.3502071e-04  -5.7157282e-05  -6.7557279e-05  -7.2919341e-05  -7.7256419e-05   0.0000000e+00  -1.6844615e-05   7.0666070e-05   0.0000000e+00   0.0000000e+00  -8.7071088e-05   0.0000000e+00   2.8127915e-05   4.4453098e-05  -4.2838259e-05   0.0000000e+00   2.9709708e-06  -4.4322215e-05  -5.0003594e-06  -3.1351503e-04  -3.8297186e-04  -2.7042947e-04  -2.2956503e-04  -1.6064465e-04  -2.3188867e-04  -3.8471521e-04  -2.7584501e-04  -1.2578059e-04  -2.7752056e-04  -2.0334182e-04  -2.3403915e-04   1.5573672e-04   9.5635768e-05  -2.8728584e-04  -3.0421689e-04  -1.5911908e-04  -1.8978238e-04  -1.9732486e-04  -5.1995003e-04  -1.8423656e-04  -1.4791650e-04  -1.8293492e-04  -1.0768569e-04   0.0000000e+00  -2.1041807e-04  -4.0241654e-04   0.0000000e+00   0.0000000e+00   6.3331161e-04   0.0000000e+00  -1.4531226e-04  -2.7588629e-04  -3.1585796e-05   0.0000000e+00  -3.1808155e-05  -2.5614764e-04   2.9120511e-04  -1.0048443e-04  -1.7909510e-04  -1.9843533e-04  -1.1975377e-04  -7.4763241e-05  -1.9328278e-04  -9.1895477e-04  -6.9368336e-04   2.8682057e-05  -2.2546214e-04  -4.0414726e-04  -2.3446820e-04   7.4140233e-05  -4.1556970e-04  -4.4085419e-04  -4.5915330e-05  -1.0681391e-04  -5.3386974e-04  -2.7712861e-04  -6.6209188e-04  -3.8824877e-05  -9.3515959e-05  -1.5696340e-04   1.0757448e-04   0.0000000e+00   1.3287246e-04  -1.3092103e-04   0.0000000e+00   0.0000000e+00   4.5570190e-04   0.0000000e+00  -6.0183447e-05  -9.8528370e-05  -1.5301951e-04   0.0000000e+00  -7.9026538e-04  -8.2999778e-04  -1.0348616e-03   5.0675022e-05   4.9535257e-05   5.8060837e-05   2.8414689e-05   6.7062391e-05   5.4448324e-05   3.7301745e-05  -6.8602189e-05   1.1120174e-04   9.6606302e-05   1.2251605e-04   7.5202693e-05   1.1870711e-04   7.9180329e-05  -4.9133055e-05   4.6747268e-05   8.8790269e-05   1.3120481e-04   9.9507811e-05   1.6338249e-04   8.5880263e-05   1.1324235e-06   2.3704546e-05   2.8046639e-05   0.0000000e+00   5.6422227e-05  -1.1924635e-04   0.0000000e+00   0.0000000e+00   2.0408704e-04   0.0000000e+00   1.0202314e-05  -2.1306588e-05   1.9756945e-05   0.0000000e+00   1.6350139e-05   1.0594503e-04  -3.5700507e-05  -2.2578171e-05   2.9529762e-05   1.2884336e-04   1.6806437e-05   1.1861143e-04   1.0431672e-04  -5.1913130e-05  -5.2997655e-05   1.4048196e-04   1.9691077e-04   2.6686660e-04   1.5875095e-04   1.6251121e-04   9.4361551e-05  -5.5064525e-05   1.1085278e-04   1.4125635e-04   2.4499810e-04   1.7057205e-04   2.1424497e-04   5.1838057e-05   1.2555899e-04   8.7125176e-05   7.5507983e-05   0.0000000e+00   3.2155272e-06  -2.2423015e-04   0.0000000e+00   0.0000000e+00   1.3818791e-04   0.0000000e+00  -5.3641060e-06  -7.8999092e-05   4.3242721e-05   0.0000000e+00   1.7698109e-05   2.8474493e-04   7.9459657e-05   1.8196688e-05   1.0142453e-05   5.9421276e-05   1.1877711e-05   3.6886672e-05   3.1979249e-05  -2.8670473e-05  -1.6557961e-04   5.3992489e-05   4.9403737e-05   1.1572102e-04   5.0708198e-05  -7.3393056e-07  -4.3996065e-05  -7.6354259e-05   3.1963528e-05   4.5241542e-05   1.1447629e-04   7.8013454e-05   3.7040723e-05   5.6647154e-05   1.2521159e-05   2.9029545e-05   4.0302575e-05   0.0000000e+00   4.3954917e-05  -2.5178155e-05   0.0000000e+00   0.0000000e+00   3.0887271e-05   0.0000000e+00   2.6610526e-05   2.4049134e-05   3.0073567e-05   0.0000000e+00   3.9290296e-05   8.9147958e-05  -3.8254778e-06   2.4683832e-04   2.6100927e-04   6.0733919e-04   2.4152125e-04   3.6729043e-04   4.8721032e-04   6.2493688e-05  -3.1566514e-04   4.2861867e-04   7.7532834e-04   7.9671600e-04   7.0417607e-04   1.2284130e-04  -6.2144011e-05  -1.1535658e-04   5.0229732e-04   5.4188226e-04   7.7695888e-04   7.3498485e-04   7.3074880e-04   6.5117307e-04   3.2760966e-04   3.7513114e-04   2.8553663e-04   0.0000000e+00   5.4928867e-04   3.9474787e-04   0.0000000e+00   0.0000000e+00  -4.6698754e-05   0.0000000e+00   3.9473489e-04   4.3688425e-04   7.9367475e-05   0.0000000e+00  -5.9545222e-05  -7.0424082e-05   2.0623832e-04   3.5944681e-05   3.3480068e-05   3.8594932e-05   3.1767596e-05   5.8583433e-05   2.8333660e-05  -3.1280853e-04  -3.5805123e-04   1.4894847e-04   7.0100656e-05  -5.0135106e-06   5.9985308e-05   8.0253540e-05  -2.7454205e-04  -2.1904136e-04   1.2825256e-05   7.4927437e-05  -1.5216837e-06  -9.7470646e-06   7.4912420e-05   2.3876553e-05   5.1728040e-05   2.1881062e-05   4.3074935e-05   0.0000000e+00   1.1149460e-05  -2.2756858e-04   0.0000000e+00   0.0000000e+00   2.2964206e-04   0.0000000e+00  -3.5174354e-05  -1.3840693e-04   2.2102040e-05   0.0000000e+00   5.5853510e-07  -1.4309564e-04  -1.8403054e-04   9.7804076e-05   1.0250125e-04   1.5136000e-04   1.4100213e-05   1.2339092e-04   1.4882586e-04   1.1595266e-04   1.0660695e-04   1.1348810e-04   1.4198055e-04   5.0261632e-05   6.1937130e-05   2.2271701e-04   1.9016557e-04   1.0399788e-04   1.1168141e-04   1.1290164e-04   1.3619948e-04   7.9409780e-05   3.1080316e-04   2.6521284e-05   1.4079535e-04   6.0096701e-05   2.3766991e-05   0.0000000e+00  -5.5572978e-05  -2.8206587e-04   0.0000000e+00   0.0000000e+00  -6.9244472e-06   0.0000000e+00  -8.6871847e-05  -1.7381624e-04   2.6332719e-05   0.0000000e+00   6.7187969e-05  -2.7607756e-05   6.2992784e-05  -1.7157282e-04  -2.6650866e-04  -5.1936965e-05  -1.5048018e-04   9.1705056e-06  -1.6705737e-04  -2.5131440e-04  -5.3090364e-04  -1.0917003e-04  -2.3517997e-04  -1.7786630e-05  -1.0759119e-04   4.6716612e-05   1.2540350e-04  -2.1846646e-04  -1.9766517e-04  -1.5113474e-04  -1.3607659e-04  -1.0141404e-04  -5.2655804e-04  -3.5490299e-04   1.5181470e-05  -1.5717140e-04   7.4283600e-05   0.0000000e+00  -3.5664208e-04  -3.3880459e-04   0.0000000e+00   0.0000000e+00   1.3395854e-04   0.0000000e+00  -1.6774223e-04  -2.1747791e-04  -2.0917311e-05   0.0000000e+00  -9.3162648e-05   1.8349547e-04   5.7682752e-04   2.1903442e-04   2.2995105e-04  -2.8778379e-04   1.5127528e-04  -1.8128878e-04  -5.5939508e-06  -3.0314738e-04   5.5522975e-06  -1.7615181e-04   3.2009002e-05  -2.7615356e-04  -1.2147772e-05  -8.4617068e-05  -5.1121528e-05   7.6535103e-05  -2.9535766e-05   1.7226354e-05  -2.2746569e-04  -1.6185526e-04   6.4238136e-04  -7.5654664e-05  -1.1350283e-05   6.5688054e-05  -4.4113952e-05   0.0000000e+00  -2.9734556e-04  -5.8867868e-04   0.0000000e+00   0.0000000e+00  -1.5544940e-04   0.0000000e+00  -1.9087272e-04  -5.6940933e-04   2.5732428e-05   0.0000000e+00   5.5479965e-07   2.8446150e-04   1.1064871e-04
  -1.0625743e-04  -9.0189687e-05  -9.9491705e-05  -1.4287027e-04  -4.9459071e-05  -6.2297947e-05   2.3437255e-05  -4.0200563e-05  -1.2903421e-04  -1.0182692e-04  -2.8338662e-05  -5.8920274e-05  -1.5702191e-04  -6.6884917e-05  -3.7182954e-05  -7.6828959e-05  -1.2544293e-04  -4.6444300e-05  -4.9055755e-05  -2.0454746e-04  -4.2672871e-05  -7.4712173e-05  -6.5050740e-05  -7.2720797e-05   0.0000000e+00  -8.3582105e-06   6.1534029e-05   0.0000000e+00   0.0000000e+00  -7.7536702e-05   0.0000000e+00   3.3687933e-05   4.4757164e-05  -3.8400693e-05   0.0000000e+00   5.9264286e-06  -4.2321186e-05  -1.0274002e-06  -2.8392061e-04  -3.5691253e-04  -2.8943889e-04  -2.2004545e-04  -1.7110314e-04  -2.2034879e-04  -3.8396821e-04  -2.7050745e-04  -1.2346251e-04  -2.6793311e-04  -1.8739154e-04  -2.1457245e-04   1.6739580e-04   8.7964762e-05  -2.7446604e-04  -3.0561162e-04  -1.4335729e-04  -1.7768794e-04  -1.8864715e-04  -4.5372949e-04  -1.7012356e-04  -1.3818781e-04  -1.6052983e-04  -9.8919813e-05   0.0000000e+00  -2.1372289e-04  -4.8333182e-04   0.0000000e+00   0.0000000e+00   7.0483142e-04   0.0000000e+00  -1.6416766e-04  -3.2663623e-04  -2.0225357e-05   0.0000000e+00  -3.4752551e-05  -2.3289964e-04   2.9976107e-04  -1.2851290e-04  -2.3268882e-04  -2.0416482e-04  -1.2652617e-04  -6.7223305e-05  -2.1003235e-04  -9.5089645e-04  -7.9327585e-04   2.1540850e-05  -2.6032281e-04  -3.0294566e-04  -2.1751358e-04   8.0249767e-05  -4.1034533e-04  -4.9092730e-04  -6.4194593e-05  -7.1355682e-05  -4.9141398e-04  -2.3670306e-04  -8.0448410e-04   8.9113553e-06  -1.0310328e-04  -1.8182124e-04   1.1459901e-04   0.0000000e+00   2.2283647e-04   4.7644018e-05   0.0000000e+00   0.0000000e+00   4.5205554e-04   0.0000000e+00   2.0866610e-05   6.7719538e-05  -1.6946265e-04   0.0000000e+00  -8.5722084e-04  -8.8344059e-04  -1.0598077e-03   6.5334070e-05   6.6154585e-05   6.3268241e-05   4.4342677e-05   7.4817009e-05   5.8169666e-05   5.6381149e-05  -4.4658352e-05   1.1844181e-04   9.9916472e-05   1.2016470e-04   7.6460348e-05   1.4091816e-04   8.8537194e-05  -3.4434441e-05   4.7882813e-05   8.9711301e-05   1.3228229e-04   9.8018824e-05   1.7532460e-04   8.6034436e-05   1.9979698e-05   2.8563589e-05   3.2983070e-05   0.0000000e+00   5.8432274e-05  -1.1777632e-04   0.0000000e+00   0.0000000e+00   2.1687622e-04   0.0000000e+00   6.3848426e-06  -2.2117481e-05   2.1602069e-05   0.0000000e+00   2.9762087e-05   1.0009935e-04  -4.2609665e-05  -3.3499753e-06   5.1334552e-05   1.3403643e-04   3.2199199e-05   1.1919290e-04   1.1521840e-04  -4.5282567e-05  -3.9828037e-05   1.4834505e-04   2.0829642e-04   2.7888430e-04   1.7138259e-04   1.7037428e-04   9.7371477e-05  -4.3200489e-05   1.2010034e-04   1.5563982e-04   2.5930093e-04   1.8241151e-04   2.4730863e-04   6.7220662e-05   1.3609968e-04   9.6977086e-05   8.3023489e-05   0.0000000e+00   1.5977623e-05  -2.0606041e-04   0.0000000e+00   0.0000000e+00   1.2181248e-04   0.0000000e+00   4.1637435e-06  -6.3433261e-05   4.7614128e-05   0.0000000e+00   2.0676976e-05   2.8507598e-04   6.6701025e-05   3.2700571e-05   2.5843305e-05   6.3772549e-05   2.4728905e-05   4.4834756e-05   4.1448894e-05  -3.2664087e-05  -1.6459923e-04   6.0422655e-05   5.7710463e-05   1.2710076e-04   6.3657450e-05   7.1926430e-06  -4.5266513e-05  -7.3039657e-05   4.0307400e-05   5.9301529e-05   1.2293762e-04   8.8810715e-05   5.5612614e-05   6.8004799e-05   2.8751920e-05   3.7568911e-05   4.9063147e-05   0.0000000e+00   5.3400192e-05  -2.0920614e-05   0.0000000e+00   0.0000000e+00   3.6000938e-05   0.0000000e+00   3.1130291e-05   2.8155757e-05   3.3557250e-05   0.0000000e+00   3.7559926e-05   8.8015423e-05  -7.7897264e-06   2.9191754e-04   2.9937576e-04   6.4828694e-04   2.8675461e-04   3.8547849e-04   5.2071842e-04   6.3434971e-05  -3.1744187e-04   4.5955437e-04   8.2156434e-04   8.2759708e-04   7.4035064e-04   1.4118769e-04  -5.6843605e-05  -1.0855372e-04   5.3220295e-04   5.7932120e-04   8.0045008e-04   7.6068517e-04   8.4346524e-04   6.8351566e-04   3.6743029e-04   4.0210930e-04   3.0098182e-04   0.0000000e+00   5.6897687e-04   3.8589434e-04   0.0000000e+00   0.0000000e+00  -6.3140942e-05   0.0000000e+00   3.9316656e-04   4.2475491e-04   9.0430867e-05   0.0000000e+00  -5.5969270e-05  -3.5080856e-05   2.2541785e-04   4.7177790e-05   4.1919704e-05   5.3736923e-05   3.8887908e-05   6.7575152e-05   3.9232862e-05  -2.9994079e-04  -3.2859025e-04   1.5726754e-04   8.3326257e-05   2.0533421e-06   7.1556908e-05   9.4468290e-05  -2.5505982e-04  -2.0539512e-04   2.2859804e-05   8.1044239e-05   1.2239926e-05   4.9776634e-06   9.2050945e-05   3.3056853e-05   5.9806508e-05   2.7741424e-05   4.6208148e-05   0.0000000e+00   2.1227268e-05  -2.1384657e-04   0.0000000e+00   0.0000000e+00   2.3803629e-04   0.0000000e+00  -2.8579188e-05  -1.3047291e-04   2.7167633e-05   0.0000000e+00   3.2802216e-06  -1.3468070e-04  -1.8237723e-04   9.5596259e-05   9.6413702e-05   1.5758873e-04   8.6079023e-06   1.2014172e-04   1.3954415e-04   1.2229154e-04   1.1954039e-04   1.1590244e-04   1.3944348e-04   2.7844654e-05   4.8932906e-05   2.2751949e-04   1.9511757e-04   1.1075171e-04   1.1181513e-04   9.8850939e-05   1.1579333e-04   6.1000770e-05   2.9107852e-04   2.0538377e-05   1.3907567e-04   5.4981048e-05   2.0837931e-05   0.0000000e+00  -6.3956701e-05  -2.8193719e-04   0.0000000e+00   0.0000000e+00   2.3531191e-06   0.0000000e+00  -9.3237264e-05  -1.7966177e-04   2.0452352e-05   0.0000000e+00   6.3820663e-05  -3.6202525e-05   2.9548937e-05  -1.6000415e-04  -2.6851536e-04  -5.3704283e-05  -1.6727215e-04   7.5833690e-06  -1.6394321e-04  -2.3817080e-04  -4.9543744e-04  -1.1972439e-04  -2.4446513e-04  -3.1940998e-05  -1.0321350e-04   5.0117265e-05   1.3474237e-04  -1.9484944e-04  -2.0520996e-04  -1.6423340e-04  -1.3864351e-04  -9.9214273e-05  -5.2226250e-04  -3.4517833e-04   1.1493947e-05  -1.6396703e-04   7.0983740e-05   0.0000000e+00  -3.5503604e-04  -3.1743205e-04   0.0000000e+00   0.0000000e+00   1.4281109e-04   0.0000000e+00  -1.6331983e-04  -2.0468391e-04  -2.9665784e-05   0.0000000e+00  -8.3788863e-05   1.7796316e-04   5.7274092e-04   2.4340744e-04   2.5528977e-04  -2.8628927e-04   1.7452491e-04  -1.8295061e-04   1.1796967e-05  -2.8642930e-04   5.4528849e-05  -1.7470739e-04   6.6270668e-05  -2.6290842e-04   5.6215270e-06  -7.2826017e-05  -2.8206271e-05   9.8445816e-05  -4.3365459e-06   4.2038628e-05  -2.2640511e-04  -1.5560081e-04   7.0117175e-04  -5.4027295e-05  -1.9515425e-06   8.5673006e-05  -3.3562120e-05   0.0000000e+00  -2.8703475e-04  -6.0775081e-04   0.0000000e+00   0.0000000e+00  -1.3507491e-04   0.0000000e+00  -1.9107195e-04  -5.8803594e-04   3.5239763e-05   0.0000000e+00   1.6486604e-05   3.0352502e-04   1.2131192e-04
  -9.8106651e-05  -8.5561081e-05  -9.4636850e-05  -1.4027879e-04  -4.7650261e-05  -4.9952649e-05   2.1642688e-05  -5.0069347e-05  -1.2105626e-04  -8.3745006e-05  -6.4106675e-06  -3.9759344e-05  -1.4657336e-04  -6.5245329e-05  -3.7610690e-05  -6.7426319e-05  -1.0623149e-04  -2.7380843e-05  -3.2681394e-05  -1.7104703e-04  -2.6827635e-05  -7.9338636e-05  -5.6163224e-05  -6.7548978e-05   0.0000000e+00   1.2168962e-06   5.3092698e-05   0.0000000e+00   0.0000000e+00  -6.7652706e-05   0.0000000e+00   3.9406366e-05   4.4944146e-05  -3.3574537e-05   0.0000000e+00   8.7784154e-06  -3.9577782e-05   3.4117368e-06  -2.4695182e-04  -3.2422661e-04  -3.0536837e-04  -2.0712754e-04  -1.8009957e-04  -2.0388401e-04  -3.7183599e-04  -2.5180297e-04  -1.2067553e-04  -2.5324360e-04  -1.7138832e-04  -1.9083807e-04   1.7708181e-04   8.1610668e-05  -2.5167644e-04  -3.0132426e-04  -1.2465694e-04  -1.6518962e-04  -1.7798459e-04  -3.7647007e-04  -1.5174173e-04  -1.2897434e-04  -1.3497264e-04  -8.9699998e-05   0.0000000e+00  -2.1159516e-04  -5.5232152e-04   0.0000000e+00   0.0000000e+00   7.6636225e-04   0.0000000e+00  -1.7920146e-04  -3.7082459e-04  -7.3901217e-06   0.0000000e+00  -3.3113718e-05  -2.0989578e-04   3.0614098e-04  -1.5253192e-04  -2.8180529e-04  -2.1105166e-04  -1.3681357e-04  -5.9539712e-05  -2.2484032e-04  -9.9047021e-04  -9.0183745e-04   1.5516074e-05  -3.0031471e-04  -1.8960643e-04  -1.9598968e-04   9.3655515e-05  -3.9823995e-04  -5.4742906e-04  -8.6931604e-05  -3.6286940e-05  -4.3602482e-04  -1.8738454e-04  -9.4350837e-04   6.1794519e-05  -1.1078933e-04  -2.0736986e-04   1.2172707e-04   0.0000000e+00   3.1344000e-04   2.3044259e-04   0.0000000e+00   0.0000000e+00   4.4709683e-04   0.0000000e+00   1.0672964e-04   2.3936388e-04  -1.8362068e-04   0.0000000e+00  -9.2298052e-04  -9.2258525e-04  -1.0544080e-03   7.9487211e-05   8.2673797e-05   6.6300947e-05   5.7348539e-05   7.7786195e-05   6.0671121e-05   7.5974998e-05  -1.8707110e-05   1.2499999e-04   1.0303576e-04   1.1588277e-04   7.6127944e-05   1.6270853e-04   9.9326625e-05  -1.7606875e-05   4.8920548e-05   9.0207490e-05   1.3085226e-04   9.3920169e-05   1.8621798e-04   8.4736849e-05   3.6675880e-05   3.2981057e-05   3.7802935e-05   0.0000000e+00   5.8552251e-05  -1.1685282e-04   0.0000000e+00   0.0000000e+00   2.2847602e-04   0.0000000e+00   2.0865536e-06  -2.3772951e-05   2.3141300e-05   0.0000000e+00   4.2092291e-05   9.5260452e-05  -4.6778746e-05   1.6422399e-05   7.3804661e-05   1.3875936e-04   4.6727700e-05   1.1869853e-04   1.2547773e-04  -3.3115038e-05  -2.4287694e-05   1.5531616e-04   2.1801820e-04   2.8876879e-04   1.8250010e-04   1.7626082e-04   1.0102961e-04  -2.9651100e-05   1.2945753e-04   1.6793628e-04   2.7220606e-04   1.9330454e-04   2.7741683e-04   8.2005232e-05   1.4646695e-04   1.0622598e-04   8.9583730e-05   0.0000000e+00   2.8416925e-05  -1.8422176e-04   0.0000000e+00   0.0000000e+00   1.0113220e-04   0.0000000e+00   1.3950800e-05  -4.6296530e-05   5.2002311e-05   0.0000000e+00   2.3754435e-05   2.8378614e-04   5.4507125e-05   4.7677294e-05   4.2253512e-05   6.8339749e-05   3.7842800e-05   5.2655733e-05   5.0607266e-05  -3.7457779e-05  -1.6347485e-04   6.6338876e-05   6.4882586e-05   1.3763353e-04   7.5745561e-05   1.3996654e-05  -4.7208237e-05  -7.0552834e-05   4.8613104e-05   7.2594039e-05   1.3091333e-04   9.9586606e-05   7.2963669e-05   7.9331464e-05   4.5069758e-05   4.5411427e-05   5.7092063e-05   0.0000000e+00   6.2659549e-05  -1.5112908e-05   0.0000000e+00   0.0000000e+00   4.0023193e-05   0.0000000e+00   3.6117226e-05   3.3098946e-05   3.6701256e-05   0.0000000e+00   3.4489144e-05   8.5567594e-05  -1.0906364e-05   3.3221867e-04   3.3215217e-04   6.8047685e-04   3.2457607e-04   3.9557162e-04   5.4550153e-04   6.2376523e-05  -3.1384734e-04   4.8453639e-04   8.5737779e-04   8.4492154e-04   7.6462175e-04   1.5713962e-04  -4.8709599e-05  -9.8511830e-05   5.5608144e-04   6.0661232e-04   8.1124273e-04   7.7292202e-04   9.4320735e-04   7.0539884e-04   4.0169710e-04   4.2326035e-04   3.1242196e-04   0.0000000e+00   5.7857063e-04   3.6703362e-04   0.0000000e+00   0.0000000e+00  -8.2480469e-05   0.0000000e+00   3.8552481e-04   4.0546723e-04   9.8645396e-05   0.0000000e+00  -5.4140269e-05  -9.7099231e-07   2.4634022e-04   5.7712071e-05   5.0117095e-05   6.8587715e-05   4.5166487e-05   7.5408452e-05   4.9898273e-05  -2.8363279e-04  -2.9405338e-04   1.6370757e-04   9.5067529e-05   6.9844292e-06   8.1951076e-05   1.0958735e-04  -2.3120497e-04  -1.8883294e-04   3.2763553e-05   8.5488050e-05   2.5284512e-05   1.9435497e-05   1.1005585e-04   4.1793081e-05   6.8571712e-05   3.3534060e-05   4.9143333e-05   0.0000000e+00   3.0333592e-05  -2.0005564e-04   0.0000000e+00   0.0000000e+00   2.4346104e-04   0.0000000e+00  -2.2669960e-05  -1.2331318e-04   3.1821663e-05   0.0000000e+00   5.5756586e-06  -1.2364092e-04  -1.8037349e-04   9.1925502e-05   8.9299213e-05   1.6068833e-04   3.8115292e-06   1.1398659e-04   1.2827009e-04   1.3027304e-04   1.3789893e-04   1.1460289e-04   1.3447229e-04   4.4383499e-06   3.5238817e-05   2.3160734e-04   2.0205855e-04   1.2009589e-04   1.0826200e-04   8.2686476e-05   9.2636436e-05   4.0549021e-05   2.6861317e-04   1.3883461e-05   1.3358097e-04   4.7898871e-05   1.6253408e-05   0.0000000e+00  -7.2399973e-05  -2.7910195e-04   0.0000000e+00   0.0000000e+00   1.0444872e-05   0.0000000e+00  -9.8528439e-05  -1.8393224e-04   1.3338379e-05   0.0000000e+00   5.8798572e-05  -4.5310576e-05  -5.6783771e-06  -1.4570770e-04  -2.6793429e-04  -5.3293877e-05  -1.7808876e-04   7.0638548e-06  -1.5925555e-04  -2.1588097e-04  -4.4795377e-04  -1.2889206e-04  -2.5023879e-04  -4.6249876e-05  -9.8401318e-05   5.0574433e-05   1.4480121e-04  -1.6634902e-04  -2.0881277e-04  -1.7671017e-04  -1.3911012e-04  -9.4654986e-05  -5.1388432e-04  -3.3142813e-04   9.2205083e-06  -1.6957487e-04   6.8713071e-05   0.0000000e+00  -3.4894701e-04  -2.8480154e-04   0.0000000e+00   0.0000000e+00   1.4730221e-04   0.0000000e+00  -1.5539514e-04  -1.8550945e-04  -3.7878703e-05   0.0000000e+00  -7.4295584e-05   1.6781115e-04   5.6265298e-04   2.6306819e-04   2.7506680e-04  -2.8280719e-04   1.9295792e-04  -1.8340430e-04   2.8918155e-05  -2.7084383e-04   9.7852054e-05  -1.7284178e-04   9.5649562e-05  -2.4743731e-04   2.2922371e-05  -6.0611300e-05  -4.4445428e-06   1.1471335e-04   1.6662941e-05   6.2548832e-05  -2.2195905e-04  -1.4675869e-04   7.4865928e-04  -3.2506621e-05   3.7294888e-06   1.0325411e-04  -2.5810194e-05   0.0000000e+00  -2.7407510e-04  -6.2016516e-04   0.0000000e+00   0.0000000e+00  -1.1278855e-04   0.0000000e+00  -1.8901368e-04  -5.9994667e-04   4.3336634e-05   0.0000000e+00   3.1806993e-05   3.1943723e-04   1.3060198e-04
  -8.9054821e-05  -7.9669111e-05  -8.8177245e-05  -1.3584491e-04  -4.4185403e-05  -3.6563604e-05   1.9074121e-05  -5.9273796e-05  -1.1144355e-04  -6.5180953e-05   1.5660322e-05  -1.9801271e-05  -1.3464716e-04  -6.3087395e-05  -3.8038597e-05  -5.6887406e-05  -8.5944009e-05  -7.6448813e-06  -1.4758222e-05  -1.3568162e-04  -1.0105100e-05  -8.0905942e-05  -4.6482656e-05  -6.1845897e-05   0.0000000e+00   1.1617789e-05   4.5705298e-05   0.0000000e+00   0.0000000e+00  -5.7772436e-05   0.0000000e+00   4.5127300e-05   4.5080139e-05  -2.8517882e-05   0.0000000e+00   1.1432846e-05  -3.6148339e-05   8.1372461e-06  -2.0404827e-04  -2.8649011e-04  -3.1805500e-04  -1.9128763e-04  -1.8739345e-04  -1.8333689e-04  -3.4784702e-04  -2.1949376e-04  -1.1810027e-04  -2.3437477e-04  -1.5629135e-04  -1.6401064e-04   1.8506007e-04   7.7595840e-05  -2.1923272e-04  -2.9191741e-04  -1.0389511e-04  -1.5330415e-04  -1.6612448e-04  -2.9107185e-04  -1.3001994e-04  -1.2084937e-04  -1.0739359e-04  -8.0556558e-05   0.0000000e+00  -2.0426007e-04  -6.0697876e-04   0.0000000e+00   0.0000000e+00   8.1562717e-04   0.0000000e+00  -1.9007031e-04  -4.0700339e-04   6.5978504e-06   0.0000000e+00  -2.5747171e-05  -1.8832685e-04   3.1072767e-04  -1.7204416e-04  -3.2486787e-04  -2.1955426e-04  -1.5097762e-04  -5.2273809e-05  -2.3760170e-04  -1.0406626e-03  -1.0194819e-03   1.1999967e-05  -3.4486399e-04  -6.9270165e-05  -1.7110543e-04   1.1560935e-04  -3.8090535e-04  -6.0984483e-04  -1.1343699e-04  -3.0369817e-06  -3.7082307e-04  -1.3152565e-04  -1.0750777e-03   1.1792489e-04  -1.1595818e-04  -2.3301044e-04   1.2960461e-04   0.0000000e+00   4.0089291e-04   4.0766336e-04   0.0000000e+00   0.0000000e+00   4.4375757e-04   0.0000000e+00   1.9359158e-04   4.0788690e-04  -1.9505697e-04   0.0000000e+00  -9.8843062e-04  -9.4610696e-04  -1.0181933e-03   9.2265408e-05   9.8085277e-05   6.6871061e-05   6.6562958e-05   7.5680022e-05   6.1783897e-05   9.5429047e-05   8.5618898e-06   1.3067260e-04   1.0581710e-04   1.0957939e-04   7.4060071e-05   1.8320327e-04   1.1148894e-04   8.4321586e-07   4.9826016e-05   9.0231540e-05   1.2670402e-04   8.7174705e-05   1.9551813e-04   8.1946023e-05   5.0072656e-05   3.6687830e-05   4.2215854e-05   0.0000000e+00   5.6767696e-05  -1.1656454e-04   0.0000000e+00   0.0000000e+00   2.3860664e-04   0.0000000e+00  -2.5660453e-06  -2.6274447e-05   2.4308686e-05   0.0000000e+00   5.2978523e-05   9.1811517e-05  -4.8080649e-05   3.6014339e-05   9.6149597e-05   1.4313523e-04   5.9842243e-05   1.1734255e-04   1.3486989e-04  -1.6023376e-05  -6.7232798e-06   1.6139555e-04   2.2594966e-04   2.9614731e-04   1.9178617e-04   1.8012386e-04   1.0528952e-04  -1.5027079e-05   1.3878980e-04   1.7772038e-04   2.8323295e-04   2.0295062e-04   3.0359845e-04   9.5657358e-05   1.5646484e-04   1.1462277e-04   9.5008759e-05   0.0000000e+00   4.0088904e-05  -1.5976915e-04   0.0000000e+00   0.0000000e+00   7.7267310e-05   0.0000000e+00   2.3562946e-05  -2.8465562e-05   5.6297917e-05   0.0000000e+00   2.6826140e-05   2.8098403e-04   4.3118943e-05   6.2524056e-05   5.8624180e-05   7.3065420e-05   5.0691347e-05   6.0008329e-05   5.9024384e-05  -4.3064434e-05  -1.6281649e-04   7.1652343e-05   7.0647034e-05   1.4695907e-04   8.6357510e-05   1.9215939e-05  -4.9929173e-05  -6.9311507e-05   5.6546770e-05   8.4566963e-05   1.3816723e-04   1.0987793e-04   8.8249804e-05   9.0050263e-05   6.0669764e-05   5.2188054e-05   6.4149419e-05   0.0000000e+00   7.1127047e-05  -8.3058314e-06   0.0000000e+00   0.0000000e+00   4.2525820e-05   0.0000000e+00   4.1239337e-05   3.8562735e-05   3.9425075e-05   0.0000000e+00   3.0078487e-05   8.2216068e-05  -1.2951895e-05   3.6657857e-04   3.5805839e-04   7.0395346e-04   3.5400668e-04   3.9796268e-04   5.6125507e-04   6.0297589e-05  -3.0397846e-04   5.0331449e-04   8.8282824e-04   8.4913873e-04   7.7689045e-04   1.7063707e-04  -3.7295566e-05  -8.4836825e-05   5.7429255e-04   6.2350192e-04   8.1014054e-04   7.7218410e-04   1.0266878e-03   7.1669862e-04   4.2913355e-04   4.3828977e-04   3.1991938e-04   0.0000000e+00   5.7863943e-04   3.4116449e-04   0.0000000e+00   0.0000000e+00  -1.0639444e-04   0.0000000e+00   3.7283851e-04   3.8146421e-04   1.0392426e-04   0.0000000e+00  -5.3351399e-05   3.0270442e-05   2.6903981e-04   6.7120024e-05   5.7744850e-05   8.2392825e-05   5.0330908e-05   8.1657453e-05   5.9753724e-05  -2.6511237e-04  -2.5639999e-04   1.6815789e-04   1.0469489e-04   9.0948929e-06   9.0523026e-05   1.2542838e-04  -2.0427741e-04  -1.7041093e-04   4.1965010e-05   8.8040469e-05   3.6607851e-05   3.2617724e-05   1.2828974e-04   4.9551331e-05   7.7541815e-05   3.8889522e-05   5.1697702e-05   0.0000000e+00   3.7777046e-05  -1.8760089e-04   0.0000000e+00   0.0000000e+00   2.4622597e-04   0.0000000e+00  -1.7968871e-05  -1.1783334e-04   3.5809465e-05   0.0000000e+00   7.4693418e-06  -1.1060380e-04  -1.7840902e-04   8.6885526e-05   8.1467357e-05   1.6036616e-04  -8.3909375e-08   1.0526622e-04   1.1547676e-04   1.3927875e-04   1.6000083e-04   1.0991738e-04   1.2718445e-04  -1.9127422e-05   2.1336191e-05   2.3509627e-04   2.1043091e-04   1.3113144e-04   1.0122915e-04   6.5196005e-05   6.7570973e-05   1.8770457e-05   2.4416571e-04   6.7456315e-06   1.2488724e-04   3.9153490e-05   1.0197934e-05   0.0000000e+00  -8.0680853e-05  -2.7422802e-04   0.0000000e+00   0.0000000e+00   1.7065513e-05   0.0000000e+00  -1.0266959e-04  -1.8681570e-04   5.2557581e-06   0.0000000e+00   5.2311336e-05  -5.4733639e-05  -4.1361612e-05  -1.3037182e-04  -2.6573370e-04  -5.1087472e-05  -1.8346285e-04   7.2886345e-06  -1.5367334e-04  -1.8551333e-04  -3.9095780e-04  -1.3669499e-04  -2.5281556e-04  -6.0363903e-05  -9.3739381e-05   4.8266246e-05   1.5586960e-04  -1.3452520e-04  -2.0895248e-04  -1.8855972e-04  -1.3767443e-04  -8.8096704e-05  -5.0257738e-04  -3.1486665e-04   7.8631493e-06  -1.7425352e-04   6.6922937e-05   0.0000000e+00  -3.3949959e-04  -2.4279881e-04   0.0000000e+00   0.0000000e+00   1.4764114e-04   0.0000000e+00  -1.4459390e-04  -1.6106120e-04  -4.5343946e-05   0.0000000e+00  -6.4964605e-05   1.5397661e-04   5.4831137e-04   2.7715069e-04   2.8841067e-04  -2.7810893e-04   2.0569196e-04  -1.8314094e-04   4.4860274e-05  -2.5722669e-04   1.3394557e-04  -1.7116030e-04   1.1854501e-04  -2.3133727e-04   3.8672498e-05  -4.8835202e-05   1.9276551e-05   1.2490055e-04   3.2501238e-05   7.7451266e-05  -2.1485617e-04  -1.3614885e-04   7.8337331e-04  -1.2265045e-05   5.1364408e-06   1.1761387e-04  -2.1547916e-05   0.0000000e+00  -2.5965697e-04  -6.2622670e-04   0.0000000e+00   0.0000000e+00  -8.9937055e-05   0.0000000e+00  -1.8509194e-04  -6.0539726e-04   4.9619229e-05   0.0000000e+00   4.6210613e-05   3.3228041e-04   1.3832185e-04
  -7.9201989e-05  -7.2441157e-05  -8.0175936e-05  -1.2954693e-04  -3.9079589e-05  -2.2514883e-05   1.5925998e-05  -6.7590341e-05  -1.0041952e-04  -4.6669766e-05   3.7224269e-05   3.2297503e-07  -1.2165461e-04  -6.0612982e-05  -3.8505297e-05  -4.5453832e-05  -6.5253194e-05   1.2233361e-05   4.1920177e-06  -9.9625129e-05   6.9619425e-06  -7.9062826e-05  -3.6254917e-05  -5.5709625e-05   0.0000000e+00   2.2515575e-05   3.9612092e-05   0.0000000e+00   0.0000000e+00  -4.8213977e-05   0.0000000e+00   5.0666188e-05   4.5199433e-05  -2.3385151e-05   0.0000000e+00   1.3799011e-05  -3.2101244e-05   1.2953376e-05  -1.5692372e-04  -2.4552387e-04  -3.2746260e-04  -1.7313272e-04  -1.9279379e-04  -1.5976906e-04  -3.1202259e-04  -1.7392280e-04  -1.1634822e-04  -2.1248088e-04  -1.4289036e-04  -1.3542385e-04   1.9181394e-04   7.6886124e-05  -1.7792514e-04  -2.7814250e-04  -8.2032376e-05  -1.4289220e-04  -1.5381741e-04  -2.0090517e-04  -1.0604196e-04  -1.1416570e-04  -7.9008024e-05  -7.1983032e-05   0.0000000e+00  -1.9216842e-04  -6.4541819e-04   0.0000000e+00   0.0000000e+00   8.5107836e-04   0.0000000e+00  -1.9662551e-04  -4.3399993e-04   2.1365165e-05   0.0000000e+00  -1.1666874e-05  -1.6914194e-04   3.1404299e-04  -1.8664283e-04  -3.6046225e-04  -2.2982903e-04  -1.6896326e-04  -4.5876620e-05  -2.4822062e-04  -1.1028421e-03  -1.1451979e-03   1.2343894e-05  -3.9287070e-04   5.2550145e-05  -1.4417433e-04   1.4670336e-04  -3.6024367e-04  -6.7679539e-04  -1.4253259e-04   2.7188088e-05  -2.9941646e-04  -7.1834435e-05  -1.1953819e-03   1.7529179e-04  -1.1793487e-04  -2.5801641e-04   1.3894889e-04   0.0000000e+00   4.8171785e-04   5.7003476e-04   0.0000000e+00   0.0000000e+00   4.4437585e-04   0.0000000e+00   2.7765764e-04   5.6509345e-04  -2.0337694e-04   0.0000000e+00  -1.0541959e-03  -9.5325323e-04  -9.5231633e-04   1.0279473e-04   1.1135391e-04   6.4816071e-05   7.1322586e-05   6.8625956e-05   6.1391504e-05   1.1411382e-04   3.6448665e-05   1.3522821e-04   1.0801552e-04   1.0121223e-04   7.0160440e-05   2.0154729e-04   1.2485855e-04   2.0316622e-05   5.0527978e-05   8.9675064e-05   1.1971776e-04   7.7889271e-05   2.0261113e-04   7.7657367e-05   5.9257742e-05   3.9414386e-05   4.5892919e-05   0.0000000e+00   5.3180756e-05  -1.1681554e-04   0.0000000e+00   0.0000000e+00   2.4699597e-04   0.0000000e+00  -7.4201694e-06  -2.9523589e-05   2.5043958e-05   0.0000000e+00   6.2180766e-05   8.9972853e-05  -4.6546193e-05   5.4650248e-05   1.1750732e-04   1.4723544e-04   7.1035087e-05   1.1534025e-04   1.4313536e-04   4.9682050e-06   1.2396798e-05   1.6656589e-04   2.3193842e-04   3.0062969e-04   1.9892177e-04   1.8196177e-04   1.1000851e-04  -6.7260897e-08   1.4787481e-04   1.8462781e-04   2.9187501e-04   2.1102298e-04   3.2493205e-04   1.0768324e-04   1.6583327e-04   1.2189682e-04   9.9141736e-05   0.0000000e+00   5.0592330e-05  -1.3381266e-04   0.0000000e+00   0.0000000e+00   5.1513496e-05   0.0000000e+00   3.2593997e-05  -1.0809275e-05   6.0349206e-05   0.0000000e+00   2.9736465e-05   2.7668719e-04   3.2643678e-05   7.6637784e-05   7.4183194e-05   7.7870467e-05   6.2784301e-05   6.6565149e-05   6.6301509e-05  -4.9396522e-05  -1.6313608e-04   7.6300703e-05   7.4818823e-05   1.5475551e-04   9.4939782e-05   2.2459153e-05  -5.3460405e-05  -6.9621335e-05   6.3788894e-05   9.4726369e-05   1.4446573e-04   1.1921222e-04   1.0072854e-04   9.9576546e-05   7.4700599e-05   5.7580597e-05   7.0046709e-05   0.0000000e+00   7.8212843e-05  -1.1090669e-06   0.0000000e+00   0.0000000e+00   4.3086631e-05   0.0000000e+00   4.6135344e-05   4.4196901e-05   4.1674121e-05   0.0000000e+00   2.4415161e-05   7.8430680e-05  -1.3777422e-05   3.9406657e-04   3.7614225e-04   7.1917482e-04   3.7451613e-04   3.9347750e-04   5.6808782e-04   5.8281439e-05  -2.8738048e-04   5.1588225e-04   8.9836670e-04   8.4125893e-04   7.7757876e-04   1.8163023e-04  -2.2393508e-05  -6.7407083e-05   5.8735876e-04   6.3016442e-04   7.9842878e-04   7.5954366e-04   1.0912324e-03   7.1772789e-04   4.4889267e-04   4.4715470e-04   3.2365025e-04   0.0000000e+00   5.7022567e-04   3.1181171e-04   0.0000000e+00   0.0000000e+00  -1.3639746e-04   0.0000000e+00   3.5637471e-04   3.5539851e-04   1.0630600e-04   0.0000000e+00  -5.2711879e-05   5.7140248e-05   2.9327460e-04   7.5002908e-05   6.4460478e-05   9.4451404e-05   5.4103515e-05   8.5972623e-05   6.8240929e-05  -2.4566853e-04  -2.1772806e-04   1.7059152e-04   1.1166071e-04   7.8298100e-06   9.6662482e-05   1.4167084e-04  -1.7574431e-04  -1.5130517e-04   4.9919113e-05   8.8521455e-05   4.5294569e-05   4.3581485e-05   1.4597633e-04   5.5820074e-05   8.6151786e-05   4.3407045e-05   5.3655739e-05   0.0000000e+00   4.2936470e-05  -1.7772146e-04   0.0000000e+00   0.0000000e+00   2.4674693e-04   0.0000000e+00  -1.4928623e-05  -1.1477201e-04   3.8890990e-05   0.0000000e+00   9.0103954e-06  -9.6319837e-05  -1.7678388e-04   8.0613622e-05   7.3222315e-05   1.5649671e-04  -2.9694105e-06   9.4462612e-05   1.0168287e-04   1.4855708e-04   1.8381019e-04   1.0235149e-04   1.1779749e-04  -4.2038401e-05   7.7032319e-06   2.3806579e-04   2.1950767e-04   1.4277615e-04   9.1131836e-05   4.7212060e-05   4.1536348e-05  -3.5397170e-06   2.1847540e-04  -6.6888127e-07   1.1377014e-04   2.9143551e-05   2.9394241e-06   0.0000000e+00  -8.8550427e-05  -2.6800931e-04   0.0000000e+00   0.0000000e+00   2.2037982e-05   0.0000000e+00  -1.0561811e-04  -1.8850317e-04  -3.4738631e-06   0.0000000e+00   4.4615296e-05  -6.4281776e-05  -7.6207377e-05  -1.1580323e-04  -2.6301205e-04  -4.7601533e-05  -1.8442435e-04   7.8514251e-06  -1.4794009e-04  -1.4885396e-04  -3.2758477e-04  -1.4323024e-04  -2.5271040e-04  -7.3977906e-05  -8.9832856e-05   4.3602967e-05   1.6815684e-04  -1.0121764e-04  -2.0634972e-04  -1.9982426e-04  -1.3463609e-04  -8.0022416e-05  -4.8964242e-04  -2.9680976e-04   6.8652163e-06  -1.7831184e-04   6.5002299e-05   0.0000000e+00  -3.2796973e-04  -1.9395001e-04   0.0000000e+00   0.0000000e+00   1.4440619e-04   0.0000000e+00  -1.3170640e-04  -1.3280669e-04  -5.1922991e-05   0.0000000e+00  -5.6086436e-05   1.3769518e-04   5.3167773e-04   2.8506709e-04   2.9479127e-04  -2.7294292e-04   2.1220372e-04  -1.8265002e-04   5.8776228e-05  -2.4611812e-04   1.6179785e-04  -1.7019710e-04   1.3381951e-04  -2.1620642e-04   5.1866778e-05  -3.8309430e-05   4.2121768e-05   1.2903812e-04   4.2662425e-05   8.5809421e-05  -2.0593467e-04  -1.2468175e-04   8.0449882e-04   5.6020806e-06   2.0236624e-06   1.2812351e-04  -2.1232580e-05   0.0000000e+00  -2.4500506e-04  -6.2644593e-04   0.0000000e+00   0.0000000e+00  -6.7931301e-05   0.0000000e+00  -1.7977512e-04  -6.0488819e-04   5.3783423e-05   0.0000000e+00   5.9481092e-05   3.4228383e-04   1.4432008e-04
  -6.8644331e-05  -6.3850240e-05  -7.0739572e-05  -1.2142204e-04  -3.2439969e-05  -8.2219840e-06   1.2434353e-05  -7.4833580e-05  -8.8239674e-05  -2.8699921e-05   5.7645587e-05   1.9969421e-05  -1.0801590e-04  -5.8018941e-05  -3.9028057e-05  -3.3386213e-05  -4.4814688e-05   3.1707481e-05   2.3570613e-05  -6.4021306e-05   2.3812193e-05  -7.3645539e-05  -2.5739487e-05  -4.9231391e-05   0.0000000e+00   3.3529983e-05   3.4930412e-05   0.0000000e+00   0.0000000e+00  -3.9245871e-05   0.0000000e+00   5.5820167e-05   4.5302722e-05  -1.8322855e-05   0.0000000e+00   1.5792523e-05  -2.7516054e-05   1.7659363e-05  -1.0747452e-04  -2.0330031e-04  -3.3365579e-04  -1.5338495e-04  -1.9616216e-04  -1.3439947e-04  -2.6490082e-04  -1.1601139e-04  -1.1589123e-04  -1.8887215e-04  -1.3176292e-04  -1.0650662e-04   1.9800246e-04   8.0336852e-05  -1.2899157e-04  -2.6087568e-04  -6.0055231e-05  -1.3458758e-04  -1.4171238e-04  -1.0966510e-04  -8.0973733e-05  -1.0902894e-04  -5.1052375e-05  -6.4408481e-05   0.0000000e+00  -1.7595374e-04  -6.6631610e-04   0.0000000e+00   0.0000000e+00   8.7201467e-04   0.0000000e+00  -1.9890658e-04  -4.5093595e-04   3.6502338e-05   0.0000000e+00   9.8779628e-06  -1.5299293e-04   3.1671367e-04  -1.9602580e-04  -3.8738811e-04  -2.4169501e-04  -1.9029269e-04  -4.0636541e-05  -2.5662328e-04  -1.1765048e-03  -1.2767688e-03   1.7720434e-05  -4.4277145e-04   1.7029055e-04  -1.1655500e-04   1.8674633e-04  -3.3825107e-04  -7.4607507e-04  -1.7262477e-04   5.3458326e-05  -2.2566511e-04  -1.1199073e-05  -1.3010973e-03   2.3187576e-04  -1.1602514e-04  -2.8155783e-04   1.5048469e-04   0.0000000e+00   5.5298673e-04   7.0965378e-04   0.0000000e+00   0.0000000e+00   4.5042363e-04   0.0000000e+00   3.5543324e-04   7.0377949e-04  -2.0824524e-04   0.0000000e+00  -1.1204851e-03  -9.4387557e-04  -8.5953850e-04   1.1025214e-04   1.2148239e-04   6.0131696e-05   7.1231687e-05   5.7171006e-05   5.9430838e-05   1.3145679e-04   6.4254669e-05   1.3842128e-04   1.0928842e-04   9.0796065e-05   6.4383757e-05   2.1695515e-04   1.3916637e-04   4.0137869e-05   5.0912270e-05   8.8366731e-05   1.0988701e-04   6.6312174e-05   2.0683433e-04   7.1902802e-05   6.3652583e-05   4.0902385e-05   4.8485537e-05   0.0000000e+00   4.7992713e-05  -1.1734229e-04   0.0000000e+00   0.0000000e+00   2.5341182e-04   0.0000000e+00  -1.2304513e-05  -3.3326662e-05   2.5291319e-05   0.0000000e+00   6.9586333e-05   8.9794612e-05  -4.2356675e-05   7.1527642e-05   1.3699058e-04   1.5107244e-04   7.9865375e-05   1.1289399e-04   1.4998697e-04   2.8478986e-05   3.2482304e-05   1.7079378e-04   2.3581370e-04   3.0184217e-04   2.0359685e-04   1.8180889e-04   1.1494957e-04   1.4387201e-05   1.5640969e-04   1.8837309e-04   2.9763362e-04   2.1717834e-04   3.4057345e-04   1.1765285e-04   1.7427482e-04   1.2776896e-04   1.0186187e-04   0.0000000e+00   5.9594116e-05  -1.0746126e-04   0.0000000e+00   0.0000000e+00   2.5255032e-05   0.0000000e+00   4.0689004e-05   5.8681688e-06   6.3971924e-05   0.0000000e+00   3.2276682e-05   2.7083187e-04   2.3073046e-05   8.9446727e-05   8.8179368e-05   8.2653344e-05   7.3701890e-05   7.2035244e-05   7.2093495e-05  -5.6270657e-05  -1.6480782e-04   8.0243474e-05   7.7304128e-05   1.6076065e-04   1.0103452e-04   2.3441065e-05  -5.7748420e-05  -7.1651645e-05   7.0052193e-05   1.0266267e-04   1.4958866e-04   1.2713408e-04   1.0979992e-04   1.0735594e-04   8.6322241e-05   6.1340319e-05   7.4652269e-05   0.0000000e+00   8.3389422e-05   5.8604496e-06   0.0000000e+00   0.0000000e+00   4.1328639e-05   0.0000000e+00   5.0440366e-05   4.9645073e-05   4.3419205e-05   0.0000000e+00   1.7670629e-05   7.4699946e-05  -1.3317638e-05   4.1402452e-04   3.8583381e-04   7.2691184e-04   3.8599749e-04   3.8326989e-04   5.6648858e-04   5.7421298e-05  -2.6413848e-04   5.2244487e-04   9.0475029e-04   8.2274621e-04   7.6757223e-04   1.9003174e-04  -4.0836237e-06  -4.6433024e-05   5.9589042e-04   6.2715768e-04   7.7773115e-04   7.3652678e-04   1.1349418e-03   7.0918972e-04   4.6059638e-04   4.5003874e-04   3.2386225e-04   0.0000000e+00   5.5471510e-04   2.8267064e-04   0.0000000e+00   0.0000000e+00  -1.7367239e-04   0.0000000e+00   3.3753163e-04   3.2989589e-04   1.0594288e-04   0.0000000e+00  -5.1246206e-05   7.8349533e-05   3.1851357e-04   8.0994677e-05   6.9925297e-05   1.0415963e-04   5.6203458e-05   8.8106608e-05   7.4847707e-05  -2.2656270e-04  -1.8014631e-04   1.7106391e-04   1.1552092e-04   2.7972611e-06   9.9829714e-05   1.5785859e-04  -1.4715587e-04  -1.3273753e-04   5.6143613e-05   8.6790014e-05   5.0589732e-05   5.1518902e-05   1.6221999e-04   6.0138926e-05   9.3798703e-05   4.6679097e-05   5.4787187e-05   0.0000000e+00   4.5296647e-05  -1.7140742e-04   0.0000000e+00   0.0000000e+00   2.4550999e-04   0.0000000e+00  -1.3892563e-05  -1.1465053e-04   4.0861072e-05   0.0000000e+00   1.0261936e-05  -8.1619170e-05  -1.7569328e-04   7.3291658e-05   6.4843599e-05   1.4913355e-04  -4.8409896e-06   8.2177609e-05   8.7429325e-05   1.5729772e-04   2.0713172e-04   9.2545702e-05   1.0661042e-04  -6.3526747e-05  -5.2200658e-06   2.4056534e-04   2.2846841e-04   1.5386908e-04   7.8560324e-05   2.9559523e-05   1.5523756e-05  -2.5548790e-05   1.9226218e-04  -8.1284685e-06   1.0113956e-04   1.8322445e-05  -5.1954021e-06   0.0000000e+00  -9.5752886e-05  -2.6110673e-04   0.0000000e+00   0.0000000e+00   2.5299867e-05   0.0000000e+00  -1.0736928e-04  -1.8916782e-04  -1.2493874e-05   0.0000000e+00   3.6022450e-05  -7.3766904e-05  -1.0903337e-04  -1.0379663e-04  -2.6091835e-04  -4.3440518e-05  -1.8239437e-04   8.3024243e-06  -1.4281760e-04  -1.0831562e-04  -2.6143507e-04  -1.4865433e-04  -2.5060377e-04  -8.6845981e-05  -8.7278232e-05   3.7181256e-05   1.8175571e-04  -6.8438996e-05  -2.0191373e-04  -2.1058341e-04  -1.3037934e-04  -7.1017301e-05  -4.7646380e-04  -2.7860309e-04   5.6739210e-06  -1.8208744e-04   6.2349761e-05   0.0000000e+00  -3.1570015e-04  -1.4131175e-04   0.0000000e+00   0.0000000e+00   1.3850406e-04   0.0000000e+00  -1.1764695e-04  -1.0251010e-04  -5.7558003e-05   0.0000000e+00  -4.7963812e-05   1.2040564e-04   5.1473210e-04   2.8654237e-04   2.9404281e-04  -2.6799090e-04   2.1234615e-04  -1.8238445e-04   6.9936379e-05  -2.3775757e-04   1.8100989e-04  -1.7036856e-04   1.4085991e-04  -2.0351690e-04   6.1654170e-05  -2.9729448e-05   6.3351280e-05   1.2760259e-04   4.7100134e-05   8.7140535e-05  -1.9609482e-04  -1.1329458e-04   8.1190973e-04   2.0145563e-05  -5.5331545e-06   1.3437947e-04  -2.5049273e-05   0.0000000e+00  -2.3130866e-04  -6.2151424e-04   0.0000000e+00   0.0000000e+00  -4.8150121e-05   0.0000000e+00  -1.7357458e-04  -5.9914125e-04   5.5640129e-05   0.0000000e+00   7.1489857e-05   3.4978479e-04   1.4851116e-04
  -5.7487466e-05  -5.3932651e-05  -6.0014151e-05  -1.1157340e-04  -2.4446792e-05   5.8828262e-06   8.8538697e-06  -8.0861083e-05  -7.5186901e-05  -1.1698766e-05   7.6321757e-05   3.8503737e-05  -9.4147240e-05  -5.5485386e-05  -3.9603918e-05  -2.0959113e-05  -2.5245285e-05   5.0230955e-05   4.2723678e-05  -2.9945998e-05   3.9876983e-05  -6.4674637e-05  -1.5205299e-05  -4.2499874e-05   0.0000000e+00   4.4245142e-05   3.1660639e-05   0.0000000e+00   0.0000000e+00  -3.1077125e-05   0.0000000e+00   6.0374018e-05   4.5357108e-05  -1.3465819e-05   0.0000000e+00   1.7340548e-05  -2.2483587e-05   2.2056811e-05  -5.7685663e-05  -1.6183243e-04  -3.3677321e-04  -1.3285208e-04  -1.9743097e-04  -1.0853270e-04  -2.0752569e-04  -4.7210177e-05  -1.1701124e-04  -1.6493111e-04  -1.2325710e-04  -7.8698158e-05   2.0440472e-04   8.8635845e-05  -7.4058008e-05  -2.4104722e-04  -3.8931535e-05  -1.2875483e-04  -1.3031779e-04  -2.1197055e-05  -5.5996027e-05  -1.0530265e-04  -2.4714536e-05  -5.8180413e-05   0.0000000e+00  -1.5638811e-04  -6.6897629e-04   0.0000000e+00   0.0000000e+00   8.7862882e-04   0.0000000e+00  -1.9712115e-04  -4.5726971e-04   5.1581895e-05   0.0000000e+00   3.9343376e-05  -1.4020797e-04   3.1942800e-04  -1.9999865e-04  -4.0472599e-04  -2.5463953e-04  -2.1408177e-04  -3.6673763e-05  -2.6275970e-04  -1.2592311e-03  -1.4108207e-03   2.8988979e-05  -4.9262807e-04   2.7870584e-04  -8.9580670e-05   2.3476660e-04  -3.1684515e-04  -8.1477822e-04  -2.0182380e-04   7.5144463e-05  -1.5345676e-04   4.7489336e-05  -1.3895715e-03   2.8578020e-04  -1.0954843e-04  -3.0276510e-04   1.6486632e-04   0.0000000e+00   6.1254138e-04   8.2073326e-04   0.0000000e+00   0.0000000e+00   4.6233431e-04   0.0000000e+00   4.2397139e-04   8.1834905e-04  -2.0941178e-04   0.0000000e+00  -1.1869988e-03  -9.1845396e-04  -7.4413349e-04   1.1392643e-04   1.2758333e-04   5.2988169e-05   6.6198743e-05   4.2221962e-05   5.5888009e-05   1.4696128e-04   9.1291115e-05   1.4000493e-04   1.0920952e-04   7.8410673e-05   5.6733730e-05   2.2876688e-04   1.5404737e-04   5.9579087e-05   5.0820919e-05   8.6078643e-05   9.7328526e-05   5.2811202e-05   2.0750347e-04   6.4748179e-05   6.3073766e-05   4.0916526e-05   4.9645971e-05   0.0000000e+00   4.1480817e-05  -1.1775781e-04   0.0000000e+00   0.0000000e+00   2.5769407e-04   0.0000000e+00  -1.7042834e-05  -3.7412846e-05   2.5000037e-05   0.0000000e+00   7.5206832e-05   9.1158787e-05  -3.5821838e-05   8.5862635e-05   1.5372979e-04   1.5459924e-04   8.5982866e-05   1.1018873e-04   1.5512383e-04   5.2849691e-05   5.2830957e-05   1.7403377e-04   2.3739535e-04   2.9946278e-04   2.0552873e-04   1.7972660e-04   1.1979365e-04   2.7429774e-05   1.6402907e-04   1.8876796e-04   3.0006928e-04   2.2108453e-04   3.4978332e-04   1.2521964e-04   1.8146972e-04   1.3196433e-04   1.0309173e-04   0.0000000e+00   6.6836925e-05  -8.1765016e-05   0.0000000e+00   0.0000000e+00  -1.2411963e-07   0.0000000e+00   4.7560523e-05   2.0876180e-05   6.6960312e-05   0.0000000e+00   3.4197863e-05   2.6329200e-04   1.4301241e-05   1.0043899e-04   9.9924737e-05   8.7295697e-05   8.3118702e-05   7.6191740e-05   7.6128582e-05  -6.3419667e-05  -1.6804452e-04   8.3458903e-05   7.8103207e-05   1.6478954e-04   1.0430824e-04   2.2004367e-05  -6.2653600e-05  -7.5425976e-05   7.5092919e-05   1.0807334e-04   1.5334498e-04   1.3323690e-04   1.1504104e-04   1.1290055e-04   9.4781451e-05   6.3299937e-05   7.7895280e-05   0.0000000e+00   8.6233581e-05   1.2031050e-05   0.0000000e+00   0.0000000e+00   3.6959103e-05   0.0000000e+00   5.3816875e-05   5.4569321e-05   4.4658461e-05   0.0000000e+00   1.0091861e-05   7.1488383e-05  -1.1592463e-05   4.2607637e-04   3.8696579e-04   7.2814514e-04   3.8871908e-04   3.6870573e-04   5.5726209e-04   5.8699996e-05  -2.3494429e-04   5.2336411e-04   9.0293937e-04   7.9537814e-04   7.4811934e-04   1.9567906e-04   1.7242270e-05  -2.2471070e-05   6.0046769e-04   6.1534179e-04   7.4988324e-04   7.0499678e-04   1.1567944e-03   6.9211579e-04   4.6433640e-04   4.4732109e-04   3.2084272e-04   0.0000000e+00   5.3371863e-04   2.5725721e-04   0.0000000e+00   0.0000000e+00  -2.1892239e-04   0.0000000e+00   3.1772760e-04   3.0732599e-04   1.0306877e-04   0.0000000e+00  -4.8011646e-05   9.2897490e-05   3.4393747e-04   8.4780109e-05   7.3812777e-05   1.1104521e-04   5.6355645e-05   8.7929382e-05   7.9134923e-05  -2.0895021e-04  -1.4564036e-04   1.6969984e-04   1.1596335e-04  -6.2076035e-06   9.9582738e-05   1.7340876e-04  -1.2005075e-04  -1.1590421e-04   6.0240504e-05   8.2742382e-05   5.1946241e-05   5.5803744e-05   1.7604775e-04   6.2125526e-05   9.9876162e-05   4.8312854e-05   5.4856876e-05   0.0000000e+00   4.4484455e-05  -1.6934829e-04   0.0000000e+00   0.0000000e+00   2.4303376e-04   0.0000000e+00  -1.5082203e-05  -1.1773993e-04   4.1558998e-05   0.0000000e+00   1.1289268e-05  -6.7352042e-05  -1.7521314e-04   6.5140090e-05   5.6572639e-05   1.3851440e-04  -5.7940473e-06   6.9087361e-05   7.3256549e-05   1.6472037e-04   2.2780945e-04   8.1212938e-05   9.4006713e-05  -8.2908781e-05  -1.7028834e-05   2.4260831e-04   2.3649097e-04   1.6327870e-04   6.4239849e-05   1.3004808e-05  -9.4767270e-06  -4.6418440e-05   1.6621949e-04  -1.5399262e-05   8.7971800e-05   7.1730206e-06  -1.3842616e-05   0.0000000e+00  -1.0203215e-04  -2.5410090e-04   0.0000000e+00   0.0000000e+00   2.6904274e-05   0.0000000e+00  -1.0794813e-04  -1.8894641e-04  -2.1429812e-05   0.0000000e+00   2.6886174e-05  -8.3017935e-05  -1.3881884e-04  -9.6002548e-05  -2.6057546e-04  -3.9251484e-05  -1.7905674e-04   8.1995767e-06  -1.3903755e-04  -6.6793839e-05  -1.9636160e-04  -1.5316735e-04  -2.4729431e-04  -9.8791379e-05  -8.6619464e-05   2.9731339e-05   1.9660788e-04  -3.8256286e-05  -1.9666605e-04  -2.2094840e-04  -1.2535324e-04  -6.1738968e-05  -4.6444025e-04  -2.6154988e-04   3.8022491e-06  -1.8592275e-04   5.8438650e-05   0.0000000e+00  -3.0401033e-04  -8.8310706e-05   0.0000000e+00   0.0000000e+00   1.3110432e-04   0.0000000e+00  -1.0339818e-04  -7.2125082e-05  -6.2272511e-05   0.0000000e+00  -4.0908563e-05   1.0362548e-04   4.9928876e-04   2.8162059e-04   2.8637218e-04  -2.6381396e-04   2.0636129e-04  -1.8272142e-04   7.7780622e-05  -2.3208931e-04   1.9177956e-04  -1.7193738e-04   1.3962992e-04  -1.9450716e-04   6.7397746e-05  -2.3627579e-05   8.2365228e-05   1.2146299e-04   4.6226052e-05   8.1443963e-05  -1.8623197e-04  -1.0289314e-04   8.0615349e-04   3.0619013e-05  -1.7141541e-05   1.3622360e-04  -3.2904481e-05   0.0000000e+00  -2.1963990e-04  -6.1226350e-04   0.0000000e+00   0.0000000e+00  -3.1840762e-05   0.0000000e+00  -1.6701052e-04  -5.8905469e-04   5.5115287e-05   0.0000000e+00   8.2174360e-05   3.5517681e-04   1.5085775e-04
  -4.5861730e-05  -4.2804664e-05  -4.8181419e-05  -1.0017220e-04  -1.5334759e-05   1.9366196e-05   5.4329335e-06  -8.5579534e-05  -6.1562745e-05   3.9679543e-06   9.2697983e-05   5.5322387e-05  -8.0450437e-05  -5.3167863e-05  -4.0214409e-05  -8.4602811e-06  -7.1057089e-06   6.7272130e-05   6.0972493e-05   1.6180461e-06   5.4603682e-05  -5.2348828e-05  -4.9228144e-06  -3.5602974e-05   0.0000000e+00   5.4231479e-05   2.9697771e-05   0.0000000e+00   0.0000000e+00  -2.3852561e-05   0.0000000e+00   6.4114938e-05   4.5301057e-05  -8.9336123e-06   0.0000000e+00   1.8384828e-05  -1.7106357e-05   2.5959689e-05  -9.5268778e-06  -1.2307319e-04  -3.3700590e-04  -1.1239924e-04  -1.9660490e-04  -8.3483327e-05  -1.4141223e-04   3.0550567e-05  -1.1976275e-04  -1.4202345e-04  -1.1750217e-04  -5.3380108e-05   2.1185309e-04   1.0225424e-04  -1.5061178e-05  -2.1958766e-04  -1.9554126e-05  -1.2548899e-04  -1.1999017e-04   6.0698354e-05  -3.2233064e-05  -1.0264800e-04  -1.0717549e-06  -5.3549480e-05   0.0000000e+00  -1.3433722e-04  -6.5339375e-04   0.0000000e+00   0.0000000e+00   8.7199108e-04   0.0000000e+00  -1.9162718e-04  -4.5283798e-04   6.6173229e-05   0.0000000e+00   7.6836868e-05  -1.3078673e-04   3.2288490e-04  -1.9849901e-04  -4.1188491e-04  -2.6784403e-04  -2.3909632e-04  -3.3918857e-05  -2.6660452e-04  -1.3468598e-03  -1.5429965e-03   4.6614324e-05  -5.4028141e-04   3.7320441e-04  -6.4500444e-05   2.8904268e-04  -2.9770041e-04  -8.7951668e-04  -2.2808279e-04   9.1913014e-05  -8.6435193e-05   1.0151184e-04  -1.4589924e-03   3.3532351e-04  -9.7900655e-05  -3.2079111e-04   1.8260173e-04   0.0000000e+00   6.5913894e-04   9.0014894e-04   0.0000000e+00   0.0000000e+00   4.7945121e-04   0.0000000e+00   4.8109767e-04   9.0529499e-04  -2.0675069e-04   0.0000000e+00  -1.2528810e-03  -8.7809306e-04  -6.1170521e-04   1.1327154e-04   1.2894753e-04   4.3720502e-05   5.6444632e-05   2.4937237e-05   5.0790815e-05   1.6022105e-04   1.1688708e-04   1.3975094e-04   1.0729787e-04   6.4201398e-05   4.7261456e-05   2.3648483e-04   1.6905653e-04   7.7883772e-05   5.0050929e-05   8.2539791e-05   8.2286044e-05   3.7842580e-05   2.0394744e-04   5.6291789e-05   5.7738337e-05   3.9257574e-05   4.9053707e-05   0.0000000e+00   3.3971027e-05  -1.1760973e-04   0.0000000e+00   0.0000000e+00   2.5978818e-04   0.0000000e+00  -2.1467234e-05  -4.1462269e-05   2.4126524e-05   0.0000000e+00   7.9160590e-05   9.3793424e-05  -2.7359256e-05   9.6928545e-05   1.6693479e-04   1.5772117e-04   8.9151376e-05   1.0737928e-04   1.5824784e-04   7.6263971e-05   7.2655709e-05   1.7623522e-04   2.3651487e-04   2.9326294e-04   2.0448654e-04   1.7580148e-04   1.2416307e-04   3.8139974e-05   1.7033499e-04   1.8573787e-04   2.9884306e-04   2.2244093e-04   3.5196846e-04   1.3013622e-04   1.8710805e-04   1.3423415e-04   1.0280616e-04   0.0000000e+00   7.2153603e-05  -5.7664435e-05   0.0000000e+00   0.0000000e+00  -2.3325813e-05   0.0000000e+00   5.3009652e-05   3.3679834e-05   6.9106108e-05   0.0000000e+00   3.5224698e-05   2.5390606e-04   6.1556139e-06   1.0918825e-04   1.0883569e-04   9.1665819e-05   9.0819136e-05   7.8890716e-05   7.8222453e-05  -7.0519188e-05  -1.7289091e-04   8.5942159e-05   7.7301690e-05   1.6674617e-04   1.0457572e-04   1.8140408e-05  -6.7959819e-05  -8.0824064e-05   7.8722515e-05   1.1077963e-04   1.5558552e-04   1.3719278e-04   1.1622928e-04   1.1582419e-04   9.9496624e-05   6.3384160e-05   7.9764214e-05   0.0000000e+00   8.6463501e-05   1.6930890e-05   0.0000000e+00   0.0000000e+00   2.9805729e-05   0.0000000e+00   5.5979173e-05   5.8674341e-05   4.5413644e-05   0.0000000e+00   1.9846693e-06   6.9197466e-05  -8.7091716e-06   4.3013293e-04   3.7976659e-04   7.2393071e-04   3.8324214e-04   3.5121286e-04   5.4145142e-04   6.2893523e-05  -2.0107845e-04   5.1908899e-04   8.9397971e-04   7.6108716e-04   7.2073622e-04   1.9831963e-04   4.0877880e-05   3.5830719e-06   6.0156306e-04   5.9576396e-04   7.1677788e-04   6.6700000e-04   1.1567057e-03   6.6777485e-04   4.6062733e-04   4.3952399e-04   3.1487546e-04   0.0000000e+00   5.0891051e-04   2.3860003e-04   0.0000000e+00   0.0000000e+00  -2.7227719e-04   0.0000000e+00   2.9829507e-04   2.8962071e-04   9.7970965e-05   0.0000000e+00  -4.2201309e-05   1.0012775e-04   3.6846978e-04   8.6101519e-05   7.5824053e-05   1.1480175e-04   5.4298386e-05   8.5429205e-05   8.0759915e-05  -1.9379558e-04  -1.1594285e-04   1.6668860e-04   1.1281954e-04  -1.9190227e-05   9.5617326e-05   1.8764473e-04  -9.5864506e-05  -1.0189233e-04   6.1919495e-05   7.6309097e-05   4.9061031e-05   5.6033383e-05   1.8645518e-04   6.1496813e-05   1.0382392e-04   4.7960420e-05   5.3649492e-05   0.0000000e+00   4.0293379e-05  -1.7190107e-04   0.0000000e+00   0.0000000e+00   2.3982941e-04   0.0000000e+00  -1.8584577e-05  -1.2405904e-04   4.0883188e-05   0.0000000e+00   1.2152422e-05  -5.4331360e-05  -1.7530343e-04   5.6414572e-05   4.8614546e-05   1.2506103e-04  -6.0177172e-06   5.5892401e-05   5.9677014e-05   1.7014333e-04   2.4394770e-04   6.9088600e-05   8.0432661e-05  -9.9618254e-05  -2.7382969e-05   2.4418193e-04   2.4283180e-04   1.7002320e-04   4.8986581e-05  -1.7825611e-06  -3.2513775e-05  -6.5361413e-05   1.4102339e-04  -2.2253191e-05   7.5213161e-05  -3.8243692e-06  -2.2629033e-05   0.0000000e+00  -1.0716064e-04  -2.4745149e-04   0.0000000e+00   0.0000000e+00   2.7012496e-05   0.0000000e+00  -1.0740620e-04  -1.8793190e-04  -2.9922670e-05   0.0000000e+00   1.7582829e-05  -9.1871073e-05  -1.6476766e-04  -9.3799813e-05  -2.6299663e-04  -3.5676584e-05  -1.7619717e-04   7.1543695e-06  -1.3725726e-04  -2.7458284e-05  -1.3622724e-04  -1.5698777e-04  -2.4364345e-04  -1.0970792e-04  -8.8314897e-05   2.2053767e-05   2.1249535e-04  -1.2651174e-05  -1.9166570e-04  -2.3104818e-04  -1.2003686e-04  -5.2877304e-05  -4.5491598e-04  -2.4683663e-04   8.7355100e-07  -1.9013906e-04   5.2880608e-05   0.0000000e+00  -2.9410763e-04  -3.8529545e-05   0.0000000e+00   0.0000000e+00   1.2356167e-04   0.0000000e+00  -8.9945062e-05  -4.3667905e-05  -6.6163950e-05   0.0000000e+00  -3.5229395e-05   8.8828658e-05   4.8683419e-04   2.7066431e-04   2.7233223e-04  -2.6082569e-04   1.9485459e-04  -1.8393406e-04   8.1943630e-05  -2.2880320e-04   1.9485966e-04  -1.7498981e-04   1.3065729e-04  -1.9008842e-04   6.8711013e-05  -2.0311678e-05   9.8728820e-05   1.1179131e-04   4.0863424e-05   6.9201738e-05  -1.7718213e-04  -9.4292875e-05   7.8839995e-04   3.6519644e-05  -3.2132138e-05   1.3374781e-04  -4.4432507e-05   0.0000000e+00  -2.1088424e-04  -5.9963580e-04   0.0000000e+00   0.0000000e+00  -2.0034317e-05   0.0000000e+00  -1.6058816e-04  -5.7566034e-04   5.2257659e-05   0.0000000e+00   9.1521463e-05   3.5886724e-04   1.5136838e-04
