   5.7239523e-05   4.7491272e-05   1.9820606e-05   3.2987463e-05   3.8273185e-05   2.4891815e-05   1.9605144e-06  -1.3095711e-05   1.7715479e-05   2.3251528e-05   2.0036899e-05   1.5690600e-05   2.6134074e-05   8.0481498e-06  -7.0054366e-06   4.0794065e-06   2.8739189e-05   1.4499804e-06   2.6975783e-05   2.0308119e-05   1.2782059e-05   6.4383537e-05   7.4245182e-06   3.6306671e-05   2.8766480e-05   2.6759146e-05   1.3817374e-05   2.1058988e-05   7.7047174e-06   0.0000000e+00   1.2359280e-05  -2.2111704e-05   4.3997607e-05   1.9654300e-05  -6.6945522e-06   0.0000000e+00   0.0000000e+00   1.6115951e-05   2.5162443e-05   9.4467107e-05  -8.4905702e-05  -2.6658886e-05  -5.7545269e-05  -2.9255348e-05  -1.4913146e-04  -1.6414406e-04  -2.5692894e-04  -6.5329610e-05  -1.5777494e-05   3.3688939e-06  -7.5174438e-05  -1.9758895e-04  -2.6682321e-04  -3.9675521e-04  -2.0197513e-04  -6.2495884e-05   1.5335278e-05   1.5283004e-04   2.2990796e-04  -4.4928812e-05  -2.4362672e-05   3.2574818e-05  -1.2153209e-04  -6.3580533e-05  -1.2820309e-04  -7.5674263e-05  -2.2373562e-04   0.0000000e+00  -2.4109157e-04   1.1528739e-04   4.8065322e-05  -1.8533517e-04  -2.4498653e-04   0.0000000e+00   0.0000000e+00  -2.5264272e-05   3.5841246e-04   1.5970344e-04  -1.3357548e-04  -1.7434026e-04  -4.7575076e-05  -2.4178582e-04  -1.4248082e-04  -2.6244970e-04  -3.1221988e-05  -2.5428818e-04  -3.0878288e-04  -4.3564109e-04  -7.0508055e-05  -1.3691549e-04  -2.0576579e-04  -4.9426657e-05  -1.6618981e-04  -1.9008369e-04  -1.1130153e-03  -5.1904056e-04  -4.7275818e-04   1.6589218e-04  -2.0566681e-04   2.1003769e-04   1.7944732e-04  -9.1000709e-04  -5.4531731e-04  -4.2514324e-04   2.7609175e-04   0.0000000e+00   2.5443320e-04  -2.3628084e-04  -6.3439677e-04  -1.0116287e-04   2.9711606e-04   0.0000000e+00   0.0000000e+00  -4.5370800e-05  -8.1886442e-05  -5.5533891e-05   1.0143427e-04  -9.3510476e-05  -3.9972360e-05  -4.2004907e-05  -1.2738023e-04   1.2738944e-05  -2.0877864e-04  -2.1140562e-05  -7.7544830e-05  -5.0017725e-05  -5.2326048e-05  -1.4483325e-04  -1.2232869e-04  -1.9178219e-04  -1.5162200e-04  -6.4245799e-05  -7.9526337e-05  -4.4978626e-05  -4.7737386e-05  -2.2120295e-05  -5.1334847e-05  -9.9736402e-05  -3.3469467e-05  -8.5178065e-05  -9.8114306e-05  -1.4466899e-04  -2.4068272e-04   0.0000000e+00  -1.4209058e-04  -9.2081156e-06  -3.2875280e-05  -2.9013492e-04  -3.1506166e-04   0.0000000e+00   0.0000000e+00  -3.5568906e-05   3.1503273e-05   9.7693310e-05   9.5302305e-05   6.7344200e-05   1.1657243e-04   8.3707250e-05   9.7830858e-05   6.0449340e-05   3.3146228e-05   1.2192234e-04   3.8650389e-05   1.0747764e-04   7.5820182e-05   1.3006747e-04   2.9009075e-05   3.5154842e-05   8.1613477e-05   1.2627532e-04   2.7283425e-04   1.0998313e-04   1.0261444e-04   1.5844397e-04   1.4257872e-04   1.1610065e-04   8.2654085e-05   1.7758423e-04   4.4458869e-05   7.1721020e-05   1.1087564e-05   0.0000000e+00   5.4321641e-05   2.7598365e-05   7.5082035e-05   4.0339790e-05  -2.5195630e-05   0.0000000e+00   0.0000000e+00   4.7755376e-05   1.8582403e-05   1.9684760e-05   6.4059785e-05   2.1605405e-05   2.7384752e-05   7.8386961e-06   2.7603021e-05   7.8641907e-05   6.7183636e-05   2.2558519e-05   2.2798434e-05   1.7107579e-05   2.0132470e-05   2.8663198e-05   7.7065833e-05   4.7723648e-05   6.9249921e-05  -3.0303951e-05  -7.0414673e-05   1.5311701e-05   2.0798032e-05   6.6487211e-05   1.8247122e-05   8.4815737e-05   6.5581509e-05   3.3977436e-05   4.5696616e-05   2.0645214e-05   6.2882938e-05   0.0000000e+00   6.2735889e-05   1.0888394e-05   2.7307770e-05   3.0605954e-05   3.3832428e-05   0.0000000e+00   0.0000000e+00   2.0131709e-05   2.3488434e-05  -1.6017081e-05   5.5971705e-05   3.4981374e-05   2.1178531e-05   3.5796699e-05   9.8385281e-06   7.2356608e-05  -3.0100297e-05   5.5827662e-05   1.0370867e-05   2.5649139e-05   5.8796858e-05   2.1669994e-05   2.2297145e-05   9.9350413e-05   7.4790936e-05   6.4332227e-05   1.7419807e-06  -8.7020455e-05  -7.9569372e-05  -2.9656436e-05  -2.7544807e-06  -2.2944239e-05  -2.2725952e-05  -1.2644031e-04  -5.7221720e-05  -5.3395268e-05  -1.2195888e-04   0.0000000e+00  -9.4196051e-05   2.2727483e-05  -1.0469045e-04  -1.4583876e-04  -1.9336362e-04   0.0000000e+00   0.0000000e+00   3.0672884e-05   1.9114851e-04   9.7233263e-05   4.3999399e-05   1.0295152e-04   1.1709098e-04   6.8310366e-05   2.1181483e-04   1.0739952e-04   9.3383112e-05   3.9450073e-05   6.2218958e-05   6.6222974e-05   4.9533793e-05   1.0006474e-04   9.0237121e-05   7.4812747e-05   8.0385631e-05   6.0130606e-05   1.8807280e-04   1.2515424e-05  -1.5569005e-05   8.8154937e-05   4.0224260e-05   6.3911331e-05   1.0000146e-04   1.6010459e-04   1.9816626e-04   1.5376465e-04   2.1280767e-04   0.0000000e+00   2.4840538e-04   2.2557048e-05   1.9709871e-04   2.5959795e-04   2.6084089e-04   0.0000000e+00   0.0000000e+00   7.5856092e-05   7.3267536e-04   8.6360138e-04   8.5678772e-04   1.0003547e-03   1.1021257e-03   6.3012928e-04   9.6978366e-04   4.3331797e-04   5.5672791e-04   9.1348221e-04   6.1258731e-04   6.4527341e-04   7.3831699e-04   5.9195551e-04   2.1822893e-04   5.4127462e-04   6.3031451e-04   1.2352508e-03   1.7526573e-04   6.9854339e-04   6.8139196e-04   1.0545885e-03   5.7319940e-04   1.1435248e-03   1.0670766e-03   1.0279548e-03   9.3840391e-04   1.0001700e-03   4.5076211e-04   0.0000000e+00   1.1045473e-03   3.3073321e-04   7.3132076e-04   8.5807566e-04   4.3919066e-04   0.0000000e+00   0.0000000e+00   6.6345392e-04   7.7810152e-05  -1.0961942e-06  -8.7458532e-05  -2.6585006e-05  -6.9422919e-06  -5.1137150e-05   4.1214230e-05  -7.1374727e-05   2.8655997e-04  -1.2658124e-04  -1.6102491e-05  -9.1178446e-05   7.8682426e-06   5.0816493e-05   3.1608016e-05   2.1243707e-04   1.3712926e-04  -2.3402218e-04  -1.0608776e-04  -1.9179533e-04  -1.2843339e-04   2.0107367e-05  -6.7396150e-05   3.6923791e-05   2.0585387e-05  -2.5503880e-04  -8.1416988e-05  -2.4274718e-05   3.1144345e-04   0.0000000e+00   3.1890111e-05  -1.8466139e-05   5.0494743e-05   2.4951880e-04   4.4480351e-04   0.0000000e+00   0.0000000e+00  -4.8264412e-05   1.7746846e-04  -3.6017578e-04  -1.5481201e-05   9.4272264e-05   4.5084010e-05  -2.1159530e-05   1.4865687e-04  -3.3680650e-05   8.2574649e-05   6.9376379e-06  -4.6314204e-04  -3.5735691e-04   1.8545426e-05  -5.1683635e-05   1.8130949e-05  -3.2678043e-05  -1.6522566e-04  -1.4153376e-04  -3.4752175e-04  -1.0601194e-03  -9.5581354e-04   2.1767720e-04  -2.7064302e-05   3.1978088e-04   4.1643299e-04  -7.1803172e-04  -7.5500823e-04  -3.8973896e-04   2.1086313e-04   0.0000000e+00   1.0248118e-04  -2.5527935e-04  -5.2109402e-04  -4.1823757e-06   1.2089450e-04   0.0000000e+00   0.0000000e+00  -5.0651026e-05   2.7231315e-04   3.5397031e-04   3.7710142e-04   3.2840420e-04   3.9520735e-04   2.0811500e-04   9.0280728e-04   7.7301096e-04   2.0351818e-03   1.5441427e-04   4.5104915e-04   2.2010006e-04   3.0576133e-04   1.2481564e-03   1.3393823e-03   1.6099302e-03   1.4529778e-03   3.2385411e-04   5.3146696e-04   2.9096157e-04   2.5583129e-04   4.9179032e-04   2.0900816e-04   9.7448903e-05   3.0387062e-04   3.7859518e-04   4.2243702e-04   5.9602565e-04   1.5737403e-03   0.0000000e+00   7.7385762e-04   2.3549090e-04   1.8382887e-05   1.7920261e-03   2.1041462e-03   0.0000000e+00   0.0000000e+00   1.3383949e-04
   6.3416511e-05   5.3795756e-05   2.2339606e-05   3.8479390e-05   4.2711646e-05   2.6672870e-05   3.7977956e-06  -1.1821791e-05   1.6951536e-05   2.5268441e-05   2.1662795e-05   1.7840916e-05   3.0029378e-05   9.1725952e-06  -7.2794450e-06   5.1323988e-06   3.0657101e-05  -7.6967539e-07   2.6294998e-05   2.5163679e-05   1.5346455e-05   7.0084371e-05   6.8859207e-06   4.1520420e-05   3.2103034e-05   3.1380137e-05   1.6177764e-05   2.3216355e-05   4.2713860e-06   0.0000000e+00   1.4036463e-05  -2.1071063e-05   4.7105902e-05   1.6105366e-05  -1.1391095e-05   0.0000000e+00   0.0000000e+00   1.9036250e-05   3.4449491e-05   1.0245338e-04  -7.8976060e-05  -1.8429126e-05  -7.1282983e-05  -4.2098812e-05  -1.6495942e-04  -1.8347215e-04  -2.8780120e-04  -6.4702868e-05  -1.3650263e-05  -2.3802304e-06  -8.5759619e-05  -2.2139528e-04  -3.0196309e-04  -4.4869131e-04  -2.3452781e-04  -7.0894622e-05   9.0552285e-06   1.7907182e-04   2.7362644e-04  -5.3781226e-05  -3.0282683e-05   3.7599531e-05  -1.4272996e-04  -8.0802240e-05  -1.4399390e-04  -9.5167296e-05  -2.6387276e-04   0.0000000e+00  -2.5649900e-04   1.1334453e-04   7.2073661e-05  -2.1433066e-04  -2.9413238e-04   0.0000000e+00   0.0000000e+00  -2.2154500e-05   3.6532351e-04   1.4249504e-04  -1.5867876e-04  -2.1902733e-04  -7.8453192e-05  -2.8638971e-04  -1.6372295e-04  -2.7417377e-04  -3.2243008e-05  -2.9658810e-04  -3.5749460e-04  -5.1524559e-04  -7.1016019e-05  -1.5086065e-04  -2.0875511e-04  -7.4579410e-05  -2.0103425e-04  -2.8629903e-04  -1.3185066e-03  -6.3644897e-04  -6.0004483e-04   1.5719107e-04  -2.6597457e-04   1.8759136e-04   1.8978883e-04  -1.0578021e-03  -6.7059911e-04  -4.9619535e-04   3.1663307e-04   0.0000000e+00   2.7547382e-04  -2.7882880e-04  -7.2112901e-04  -1.2299138e-04   3.4580462e-04   0.0000000e+00   0.0000000e+00  -4.6328826e-05  -9.3903674e-05  -6.9807845e-05   1.1238253e-04  -9.3663479e-05  -5.0236392e-05  -5.2114241e-05  -1.3948528e-04   2.3514482e-05  -2.3803081e-04  -2.6227761e-05  -9.5202504e-05  -6.2567269e-05  -6.2404692e-05  -1.6188658e-04  -1.3390863e-04  -2.1596286e-04  -1.7699699e-04  -7.1908580e-05  -8.6902254e-05  -6.4933329e-05  -6.3037088e-05  -3.4119719e-05  -5.9679380e-05  -9.6466273e-05  -3.3985380e-05  -1.0463221e-04  -1.1555963e-04  -1.6766505e-04  -2.7072197e-04   0.0000000e+00  -1.6233658e-04  -9.1029223e-06  -4.0585278e-05  -3.3527571e-04  -3.5754227e-04   0.0000000e+00   0.0000000e+00  -4.5794556e-05   4.1954896e-05   1.0902523e-04   1.0775120e-04   7.9240118e-05   1.3393630e-04   9.4670520e-05   1.0334899e-04   6.1597333e-05   3.3480945e-05   1.3472627e-04   4.0569008e-05   1.2031835e-04   8.0496808e-05   1.3482154e-04   2.5602196e-05   3.5420881e-05   8.8641168e-05   1.4066411e-04   2.8104820e-04   1.1346373e-04   1.0995556e-04   1.8007514e-04   1.5920984e-04   1.3205891e-04   9.1780828e-05   1.8640978e-04   3.1623288e-05   7.0270445e-05   1.3792668e-05   0.0000000e+00   6.2593043e-05   2.8157545e-05   7.1320424e-05   3.8364096e-05  -2.7580153e-05   0.0000000e+00   0.0000000e+00   5.1786352e-05   2.0306559e-05   1.8472907e-05   7.1836570e-05   3.2536491e-05   2.7689075e-05   8.6584853e-06   3.1701632e-05   9.6080337e-05   6.0933224e-05   2.7052595e-05   2.1781733e-05   1.8221427e-05   1.8965113e-05   2.6931636e-05   8.7142919e-05   4.8934906e-05   6.9557255e-05  -2.8099797e-05  -8.5411140e-05   1.6208847e-05   2.0661769e-05   6.9772595e-05   2.1571704e-05   1.0073067e-04   6.9490195e-05   3.4595705e-05   4.4133856e-05   1.5429446e-05   6.2020363e-05   0.0000000e+00   6.7805642e-05   1.1304541e-05   1.7595969e-05   1.7908085e-05   2.1387414e-05   0.0000000e+00   0.0000000e+00   2.3394983e-05   2.8805297e-05  -1.7149728e-05   6.5091586e-05   3.9085626e-05   2.6249587e-05   4.2154676e-05  -1.6813501e-06   6.4098852e-05  -6.2011256e-05   6.1341848e-05   7.8679105e-06   3.4808466e-05   5.6013699e-05   2.5708093e-06  -5.2939462e-06   6.5179179e-05   5.6077434e-05   6.9649301e-05   5.2711257e-06  -1.0173023e-04  -8.5903351e-05  -3.3159552e-05  -4.5912853e-06  -2.4211420e-05  -2.6889119e-05  -1.4108007e-04  -6.6852421e-05  -6.1167308e-05  -1.4963960e-04   0.0000000e+00  -1.0057220e-04   1.1469380e-05  -1.2968137e-04  -1.8816617e-04  -2.3455199e-04   0.0000000e+00   0.0000000e+00   3.1542114e-05   1.9234312e-04   9.2435761e-05   4.3868524e-05   1.0909021e-04   1.1796467e-04   6.9356261e-05   2.2185534e-04   1.1377126e-04   9.1675697e-05   3.9569488e-05   6.6554244e-05   7.3295899e-05   4.9890784e-05   1.0127183e-04   9.2837021e-05   7.4662297e-05   8.3997321e-05   7.2950774e-05   1.9656942e-04   1.8435429e-05  -1.0926541e-05   8.8641714e-05   4.5141354e-05   6.4735634e-05   1.0199777e-04   1.7532831e-04   2.1998824e-04   1.6110187e-04   2.1953090e-04   0.0000000e+00   2.5930833e-04   2.5541059e-05   2.1441548e-04   2.6828443e-04   2.6731368e-04   0.0000000e+00   0.0000000e+00   7.5512193e-05   7.8381587e-04   9.1752871e-04   9.0151227e-04   1.0388437e-03   1.1836939e-03   6.9091084e-04   9.8811337e-04   4.3834501e-04   5.7060377e-04   9.9286707e-04   6.6095659e-04   7.1271339e-04   7.7454317e-04   5.8802321e-04   2.2188443e-04   5.6839089e-04   6.7549752e-04   1.3814567e-03   1.8255638e-04   7.6644932e-04   7.2739650e-04   1.1196201e-03   6.3590151e-04   1.2026966e-03   1.1246262e-03   1.1409496e-03   1.0410337e-03   1.0613618e-03   4.5458743e-04   0.0000000e+00   1.1434289e-03   3.3592427e-04   8.1068755e-04   9.1141264e-04   4.4735142e-04   0.0000000e+00   0.0000000e+00   6.6673002e-04   8.5296867e-05   4.0436161e-06  -8.9492807e-05  -2.4610066e-05  -6.7722533e-06  -6.2539746e-05   6.1479334e-05  -5.4624816e-05   3.0475142e-04  -1.3960224e-04  -2.1820265e-05  -1.0548055e-04   7.6530830e-06   6.0354732e-05   4.5662824e-05   2.4746098e-04   1.4968958e-04  -2.6532682e-04  -1.2279845e-04  -2.1556070e-04  -1.5875227e-04   2.4747333e-05  -8.0398858e-05   4.1264148e-05   2.4336426e-05  -2.8596602e-04  -8.9113216e-05  -2.9382741e-05   3.5074921e-04   0.0000000e+00   5.1217761e-05  -1.3967665e-05   5.2253713e-05   2.6798438e-04   5.0272616e-04   0.0000000e+00   0.0000000e+00  -4.5294246e-05   2.1307760e-04  -4.3363629e-04   4.3900800e-06   1.2565906e-04   6.4518791e-05  -1.7963263e-06   2.0421171e-04  -1.4814965e-05   9.9239910e-05   3.2503339e-05  -5.2341147e-04  -3.9786516e-04   3.7021106e-05  -3.2732501e-05   4.4586680e-05  -1.6411446e-05  -1.7145452e-04  -1.5830982e-04  -3.7992438e-04  -1.2364371e-03  -1.1102638e-03   2.7904569e-04  -1.5330053e-05   4.6175302e-04   5.2870224e-04  -7.9713506e-04  -9.0306625e-04  -4.6223444e-04   2.6819418e-04   0.0000000e+00   1.5285834e-04  -2.5854796e-04  -6.1868874e-04   9.7362402e-06   1.3032850e-04   0.0000000e+00   0.0000000e+00  -3.4391152e-05   3.0317838e-04   3.9600481e-04   4.2253100e-04   3.5239651e-04   4.3140732e-04   2.1830284e-04   1.0031633e-03   9.2318688e-04   2.2076919e-03   1.7747394e-04   4.8979850e-04   2.4333027e-04   3.2793666e-04   1.3976189e-03   1.5283911e-03   1.7979635e-03   1.5948907e-03   3.8715294e-04   5.6631529e-04   3.4818205e-04   3.0121938e-04   5.2027579e-04   2.2982978e-04   7.6905444e-05   3.3742288e-04   4.5801547e-04   4.7091939e-04   6.5992749e-04   1.7308846e-03   0.0000000e+00   8.1697174e-04   2.8174419e-04  -7.1590421e-08   1.9003120e-03   2.2823683e-03   0.0000000e+00   0.0000000e+00   1.3596868e-04
   6.8215238e-05   5.9148645e-05   2.4519020e-05   4.3354525e-05   4.6251153e-05   2.7651162e-05   5.4417640e-06  -9.6129975e-06   1.4702407e-05   2.6847648e-05   2.2488467e-05   1.9276226e-05   3.3418517e-05   9.9368866e-06  -7.4937216e-06   5.1575305e-06   3.1190332e-05  -3.6722125e-06   2.3424598e-05   2.9434425e-05   1.7287587e-05   7.4175719e-05   5.7253425e-06   4.6133361e-05   3.4549265e-05   3.5318050e-05   1.8680331e-05   2.4548338e-05  -6.9240896e-07   0.0000000e+00   1.4919189e-05  -1.9292882e-05   4.8897864e-05   1.0017057e-05  -1.7657831e-05   0.0000000e+00   0.0000000e+00   2.1690735e-05   4.5997124e-05   1.0956019e-04  -7.0119477e-05  -3.7803895e-06  -8.3517407e-05  -5.4927124e-05  -1.7646320e-04  -2.0057700e-04  -3.1583247e-04  -6.1269929e-05  -9.8908030e-06  -8.4703552e-06  -9.4602409e-05  -2.4185096e-04  -3.3372217e-04  -4.9604246e-04  -2.6477420e-04  -7.6934767e-05   1.7549178e-06   2.0310635e-04   3.1436427e-04  -6.1221755e-05  -3.5447701e-05   4.5808753e-05  -1.6120638e-04  -9.6480852e-05  -1.5643820e-04  -1.1339554e-04  -3.0022960e-04   0.0000000e+00  -2.6401065e-04   1.0800651e-04   9.6693619e-05  -2.4035246e-04  -3.4066261e-04   0.0000000e+00   0.0000000e+00  -1.6886181e-05   3.6344404e-04   1.1625619e-04  -1.8276206e-04  -2.6533500e-04  -1.1304211e-04  -3.3041042e-04  -1.8269137e-04  -2.7887186e-04  -3.4066072e-05  -3.3791014e-04  -4.0382477e-04  -5.9333190e-04  -6.8597025e-05  -1.5977608e-04  -2.0649816e-04  -1.0136396e-04  -2.3568830e-04  -3.9037804e-04  -1.5085524e-03  -7.5744340e-04  -7.3392216e-04   1.4132308e-04  -3.2934318e-04   1.4967538e-04   1.9235650e-04  -1.1972863e-03  -7.9699658e-04  -5.6666052e-04   3.5298317e-04   0.0000000e+00   2.9119274e-04  -3.1783233e-04  -7.9770257e-04  -1.4432632e-04   3.9195375e-04   0.0000000e+00   0.0000000e+00  -4.5832824e-05  -1.0439645e-04  -8.3844417e-05   1.2057955e-04  -9.0604964e-05  -6.0502048e-05  -6.2061001e-05  -1.4873331e-04   3.3963544e-05  -2.6371393e-04  -3.1294161e-05  -1.1240627e-04  -7.5410833e-05  -7.1793366e-05  -1.7595482e-04  -1.4312813e-04  -2.3613356e-04  -2.0053762e-04  -7.8260631e-05  -9.3386715e-05  -8.6983332e-05  -8.0357636e-05  -4.7370398e-05  -6.7683392e-05  -8.9544811e-05  -3.3611254e-05  -1.2369169e-04  -1.3177583e-04  -1.8855126e-04  -2.9621397e-04   0.0000000e+00  -1.8021137e-04  -9.6273750e-06  -4.9193635e-05  -3.7617270e-04  -3.9392145e-04   0.0000000e+00   0.0000000e+00  -5.6092136e-05   5.4639427e-05   1.1936492e-04   1.1795658e-04   9.1678908e-05   1.5101859e-04   1.0525320e-04   1.0834160e-04   6.1035996e-05   3.4066027e-05   1.4589825e-04   4.2345502e-05   1.3281182e-04   8.3665761e-05   1.3729065e-04   2.1764582e-05   3.7587349e-05   9.5662806e-05   1.5390957e-04   2.8259165e-04   1.1466653e-04   1.1589288e-04   2.0042977e-04   1.7454608e-04   1.4735791e-04   9.9829345e-05   1.9168806e-04   1.5674267e-05   6.7533854e-05   1.8535392e-05   0.0000000e+00   7.2691766e-05   2.8362720e-05   6.7163821e-05   3.8103371e-05  -2.6179329e-05   0.0000000e+00   0.0000000e+00   5.5410268e-05   2.2812087e-05   1.7372656e-05   7.7973108e-05   4.4590873e-05   2.7804145e-05   9.7072118e-06   3.6705836e-05   1.1319756e-04   5.3412210e-05   3.2116376e-05   2.0598233e-05   1.9191118e-05   1.7837793e-05   2.5632811e-05   9.7433933e-05   5.0809829e-05   6.8787284e-05  -2.3827512e-05  -1.0002733e-04   1.7143510e-05   1.9939733e-05   7.2161495e-05   2.5122497e-05   1.1595263e-04   7.1546725e-05   3.4823945e-05   4.1183694e-05   9.8830691e-06   6.0359858e-05   0.0000000e+00   7.3447016e-05   1.1377011e-05   6.0821653e-06   5.4942022e-06   8.9998240e-06   0.0000000e+00   0.0000000e+00   2.7217505e-05   3.5626485e-05  -1.7206647e-05   7.3386302e-05   4.2181986e-05   3.1538515e-05   4.8924184e-05  -1.5890066e-05   4.9859112e-05  -9.5462716e-05   6.6040646e-05   5.3464742e-06   4.5917965e-05   5.1371852e-05  -1.9146083e-05  -3.7815312e-05   2.3840661e-05   3.3961433e-05   7.2827460e-05   8.3591405e-06  -1.1493645e-04  -9.0581422e-05  -3.6071506e-05  -6.5141890e-06  -2.5430954e-05  -3.0741665e-05  -1.5335176e-04  -7.5369978e-05  -6.7065722e-05  -1.7526906e-04   0.0000000e+00  -1.0246828e-04  -1.6458429e-06  -1.5200029e-04  -2.2874917e-04  -2.7247998e-04   0.0000000e+00   0.0000000e+00   3.1626993e-05   1.8776533e-04   8.4716134e-05   4.2957017e-05   1.1338176e-04   1.1568400e-04   6.8522274e-05   2.2714310e-04   1.1813651e-04   8.5489604e-05   3.9013127e-05   6.9132872e-05   7.9518707e-05   4.9053523e-05   9.9297784e-05   9.2399243e-05   7.1398314e-05   8.4892003e-05   8.5979974e-05   2.0308625e-04   2.4897587e-05  -4.6269306e-06   8.7225949e-05   5.0422117e-05   6.5442523e-05   1.0118989e-04   1.8877328e-04   2.3777233e-04   1.6415909e-04   2.1886410e-04   0.0000000e+00   2.6394278e-04   2.8396273e-05   2.2762164e-04   2.6921630e-04   2.6476985e-04   0.0000000e+00   0.0000000e+00   7.3252131e-05   8.1962784e-04   9.4945469e-04   9.2544330e-04   1.0522398e-03   1.2411034e-03   7.4148419e-04   9.8053886e-04   4.3237274e-04   5.6960017e-04   1.0549817e-03   6.9665102e-04   7.7077739e-04   7.9398790e-04   5.6522917e-04   2.2116617e-04   5.8314158e-04   7.0768784e-04   1.5059066e-03   1.8267326e-04   8.1827477e-04   7.5777295e-04   1.1592188e-03   6.9088160e-04   1.2363607e-03   1.1577796e-03   1.2367162e-03   1.1243100e-03   1.0959784e-03   4.4797738e-04   0.0000000e+00   1.1555833e-03   3.2931979e-04   8.7841513e-04   9.4906352e-04   4.4477553e-04   0.0000000e+00   0.0000000e+00   6.5317374e-04   9.1292287e-05   9.7586506e-06  -8.8325747e-05  -2.1435870e-05  -5.9604090e-06  -7.3265275e-05   8.4916475e-05  -3.2741453e-05   3.2086703e-04  -1.4954960e-04  -2.7175497e-05  -1.1866792e-04   8.6014984e-06   7.3318249e-05   6.2422400e-05   2.8102488e-04   1.6068488e-04  -2.9188415e-04  -1.3843056e-04  -2.3724866e-04  -1.8968269e-04   3.0035746e-05  -9.2493949e-05   4.4655539e-05   2.9763737e-05  -3.1241089e-04  -9.5216932e-05  -3.3422922e-05   3.8699196e-04   0.0000000e+00   7.4232930e-05  -9.7807158e-06   5.0927695e-05   2.8353106e-04   5.5700526e-04   0.0000000e+00   0.0000000e+00  -4.0015032e-05   2.4876166e-04  -5.0400493e-04   3.1783071e-05   1.5812298e-04   8.7128393e-05   2.0367499e-05   2.6347066e-04   8.8117570e-06   1.1409258e-04   6.2809942e-05  -5.7687300e-04  -4.3279136e-04   5.7982106e-05  -9.5096232e-06   7.2106098e-05   3.3717661e-06  -1.7280051e-04  -1.7690648e-04  -4.1416428e-04  -1.4020010e-03  -1.2531855e-03   3.4404685e-04  -1.7966659e-06   6.1344435e-04   6.4465336e-04  -8.6331961e-04  -1.0437492e-03  -5.2911740e-04   3.2553304e-04   0.0000000e+00   2.0852972e-04  -2.5567445e-04  -7.0951853e-04   2.4900675e-05   1.3631307e-04   0.0000000e+00   0.0000000e+00  -1.3739598e-05   3.3028560e-04   4.3308924e-04   4.5745660e-04   3.6652207e-04   4.5854312e-04   2.2225328e-04   1.0943956e-03   1.0701933e-03   2.3477611e-03   1.9580196e-04   5.2159810e-04   2.6284333e-04   3.4577805e-04   1.5352748e-03   1.7099008e-03   1.9744169e-03   1.7177989e-03   4.4886665e-04   5.9499136e-04   4.0742468e-04   3.4885621e-04   5.3542200e-04   2.4574315e-04   4.8239073e-05   3.6649798e-04   5.3728221e-04   5.1951968e-04   7.1782343e-04   1.8646744e-03   0.0000000e+00   8.4897906e-04   3.2452981e-04  -9.7271900e-06   1.9759136e-03   2.4301858e-03   0.0000000e+00   0.0000000e+00   1.3392677e-04
   7.1487805e-05   6.3302931e-05   2.6262759e-05   4.7367690e-05   4.8756640e-05   2.7798951e-05   6.7112564e-06  -6.6130150e-06   1.0967685e-05   2.7956801e-05   2.2438652e-05   1.9830234e-05   3.6163810e-05   1.0217070e-05  -7.7271337e-06   3.9326267e-06   3.0242880e-05  -7.1917954e-06   1.8284834e-05   3.2754075e-05   1.8361327e-05   7.6586879e-05   3.9452179e-06   5.0008189e-05   3.5948578e-05   3.8258044e-05   2.1188363e-05   2.4869986e-05  -7.0688489e-06   0.0000000e+00   1.4911235e-05  -1.7031300e-05   4.9310593e-05   1.4557179e-06  -2.5442000e-05   0.0000000e+00   0.0000000e+00   2.3948336e-05   5.9951551e-05   1.1631341e-04  -5.8706004e-05   1.7322639e-05  -9.3205826e-05  -6.6942027e-05  -1.8307386e-04  -2.1513264e-04  -3.4052790e-04  -5.5082410e-05  -4.3888887e-06  -1.4358020e-05  -1.0125368e-04  -2.5853373e-04  -3.6150304e-04  -5.3806544e-04  -2.9176083e-04  -8.0255430e-05  -5.6524491e-06   2.2427879e-04   3.5050306e-04  -6.6540386e-05  -3.9527429e-05   5.7479365e-05  -1.7591661e-04  -1.0962460e-04  -1.6503012e-04  -1.2917040e-04  -3.3139644e-04   0.0000000e+00  -2.6325387e-04   1.0014145e-04   1.2089692e-04  -2.6244827e-04  -3.8308051e-04   0.0000000e+00   0.0000000e+00  -9.4304999e-06   3.5358151e-04   8.1832181e-05  -2.0562058e-04  -3.1235233e-04  -1.5068602e-04  -3.7329297e-04  -1.9910599e-04  -2.7693959e-04  -3.7406843e-05  -3.7764702e-04  -4.4666436e-04  -6.6847538e-04  -6.3324270e-05  -1.6293140e-04  -1.9971971e-04  -1.2872848e-04  -2.6962220e-04  -4.9841878e-04  -1.6750460e-03  -8.7904578e-04  -8.7070510e-04   1.1874109e-04  -3.9436446e-04   9.6985634e-05   1.8664090e-04  -1.3254381e-03  -9.2069001e-04  -6.3529028e-04   3.8381082e-04   0.0000000e+00   3.0117273e-04  -3.5206242e-04  -8.6350233e-04  -1.6401175e-04   4.3447543e-04   0.0000000e+00   0.0000000e+00  -4.4030802e-05  -1.1307865e-04  -9.7130573e-05   1.2552186e-04  -8.4616178e-05  -7.0409213e-05  -7.1463137e-05  -1.5499509e-04   4.3114535e-05  -2.8489509e-04  -3.6262465e-05  -1.2849258e-04  -8.8097741e-05  -8.0099968e-05  -1.8656968e-04  -1.4985286e-04  -2.5153976e-04  -2.2136319e-04  -8.3226565e-05  -9.9289500e-05  -1.1043441e-04  -9.9391761e-05  -6.1473717e-05  -7.5160546e-05  -7.9563253e-05  -3.2489999e-05  -1.4153289e-04  -1.4610330e-04  -2.0655533e-04  -3.1628420e-04   0.0000000e+00  -1.9518792e-04  -1.1019034e-05  -5.8620734e-05  -4.1137208e-04  -4.2286487e-04   0.0000000e+00   0.0000000e+00  -6.6074395e-05   6.9350109e-05   1.2854710e-04   1.2536847e-04   1.0414523e-04   1.6747992e-04   1.1536217e-04   1.1313671e-04   5.9071651e-05   3.5075519e-05   1.5525422e-04   4.4036600e-05   1.4486335e-04   8.5334010e-05   1.3790619e-04   1.7951087e-05   4.2026123e-05   1.0279675e-04   1.6590630e-04   2.7810519e-04   1.1377215e-04   1.2033612e-04   2.1900692e-04   1.8838981e-04   1.6156227e-04   1.0664119e-04   1.9358170e-04  -2.7440918e-06   6.3926095e-05   2.5399038e-05   0.0000000e+00   8.4670739e-05   2.8563405e-05   6.3036139e-05   4.0160220e-05  -2.0635716e-05   0.0000000e+00   0.0000000e+00   5.8658310e-05   2.6271456e-05   1.6666449e-05   8.2273748e-05   5.7278259e-05   2.7960604e-05   1.1070096e-05   4.2725060e-05   1.2936391e-04   4.5640118e-05   3.7768018e-05   1.9523737e-05   2.0112630e-05   1.7073076e-05   2.5288034e-05   1.0788660e-04   5.3835018e-05   6.7434497e-05  -1.7496496e-05  -1.1365790e-04   1.8199778e-05   1.8737708e-05   7.3980948e-05   2.8941921e-05   1.2969852e-04   7.1729741e-05   3.4957461e-05   3.7176566e-05   4.5691862e-06   5.8454783e-05   0.0000000e+00   7.9888653e-05   1.1230441e-05  -6.6870219e-06  -5.2664233e-06  -2.0216799e-06   0.0000000e+00   0.0000000e+00   3.1630487e-05   4.3920553e-05  -1.6122632e-05   8.0527079e-05   4.4099270e-05   3.6874779e-05   5.6052096e-05  -3.2524375e-05   2.9631739e-05  -1.2940061e-04   6.9917174e-05   3.1529967e-06   5.8951562e-05   4.5293546e-05  -4.2581375e-05  -7.4372503e-05  -2.2888826e-05   9.7022808e-06   7.3533904e-05   1.0673590e-05  -1.2605872e-04  -9.3528743e-05  -3.8364892e-05  -8.2584950e-06  -2.6750749e-05  -3.4195391e-05  -1.6283194e-04  -8.2208937e-05  -7.0763196e-05  -1.9801807e-04   0.0000000e+00  -9.9642924e-05  -1.5732442e-05  -1.7001552e-04  -2.6595563e-04  -3.0587904e-04   0.0000000e+00   0.0000000e+00   3.1081738e-05   1.7806765e-04   7.4806469e-05   4.1338353e-05   1.1587976e-04   1.1054802e-04   6.5971395e-05   2.2788778e-04   1.2029830e-04   7.4991795e-05   3.7789242e-05   6.9907936e-05   8.4723266e-05   4.7070390e-05   9.4365389e-05   8.8849394e-05   6.5038960e-05   8.3012397e-05   9.8547469e-05   2.0858799e-04   3.1415205e-05   3.0781735e-06   8.4208539e-05   5.6095749e-05   6.6303167e-05   9.7636100e-05   2.0041712e-04   2.5109335e-04   1.6304184e-04   2.1108641e-04   0.0000000e+00   2.6274323e-04   3.1131321e-05   2.3674112e-04   2.6318187e-04   2.5384978e-04   0.0000000e+00   0.0000000e+00   6.9301024e-05   8.4089206e-04   9.6002205e-04   9.2945218e-04   1.0429255e-03   1.2744207e-03   7.8156108e-04   9.5041692e-04   4.1712838e-04   5.5538281e-04   1.0990784e-03   7.1933972e-04   8.1909412e-04   7.9773374e-04   5.2595376e-04   2.1715890e-04   5.8645785e-04   7.2717008e-04   1.6060018e-03   1.7656900e-04   8.5302638e-04   7.7321434e-04   1.1738714e-03   7.3762186e-04   1.2466001e-03   1.1682550e-03   1.3139582e-03   1.1861651e-03   1.1046844e-03   4.3305402e-04   0.0000000e+00   1.1436502e-03   3.1184211e-04   9.3378207e-04   9.7254985e-04   4.3317382e-04   0.0000000e+00   0.0000000e+00   6.2556748e-04   9.5661346e-05   1.5779304e-05  -8.3930730e-05  -1.7218360e-05  -4.4922330e-06  -8.2837995e-05   1.1108973e-04  -6.5215086e-06   3.3628246e-04  -1.5614998e-04  -3.1750583e-05  -1.3033050e-04   1.1001836e-05   9.0230584e-05   8.1886232e-05   3.1256296e-04   1.7044656e-04  -3.1292816e-04  -1.5205467e-04  -2.5646489e-04  -2.2005708e-04   3.5917093e-05  -1.0328587e-04   4.7115683e-05   3.7256544e-05  -3.3365273e-04  -9.9329942e-05  -3.5940931e-05   4.1992620e-04   0.0000000e+00   1.0039655e-04  -6.6096435e-06   4.6962414e-05   2.9699450e-04   6.0706281e-04   0.0000000e+00   0.0000000e+00  -3.2766906e-05   2.8318080e-04  -5.6899698e-04   6.6876935e-05   1.9186922e-04   1.1171512e-04   4.3558596e-05   3.2391259e-04   3.6558942e-05   1.2624966e-04   9.6076028e-05  -6.2229802e-04  -4.6160235e-04   8.0454236e-05   1.6505971e-05   9.8849200e-05   2.4994340e-05  -1.6969263e-04  -1.9892748e-04  -4.5089587e-04  -1.5514266e-03  -1.3800127e-03   4.1016985e-04   1.2218502e-05   7.6841558e-04   7.6015399e-04  -9.1621146e-04  -1.1719337e-03  -5.8822766e-04   3.8018008e-04   0.0000000e+00   2.6694722e-04  -2.4852715e-04  -7.8953236e-04   4.0039789e-05   1.3848747e-04   0.0000000e+00   0.0000000e+00   1.0078016e-05   3.5352857e-04   4.6470476e-04   4.8064821e-04   3.7099346e-04   4.7630310e-04   2.1998962e-04   1.1760110e-03   1.2091720e-03   2.4576759e-03   2.0823864e-04   5.4641562e-04   2.7812747e-04   3.6009580e-04   1.6599065e-03   1.8805233e-03   2.1387340e-03   1.8223076e-03   5.0652641e-04   6.1834130e-04   4.6694116e-04   3.9777825e-04   5.3754601e-04   2.5633229e-04   1.2944880e-05   3.9116552e-04   6.1334570e-04   5.6754902e-04   7.6931263e-04   1.9745916e-03   0.0000000e+00   8.7237085e-04   3.6157886e-04  -8.9232221e-06   2.0244250e-03   2.5497567e-03   0.0000000e+00   0.0000000e+00   1.2829097e-04
   7.3165838e-05   6.6058681e-05   2.7483488e-05   5.0311504e-05   5.0145574e-05   2.7134846e-05   7.4499699e-06  -3.0398953e-06   5.8339447e-06   2.8572618e-05   2.1490864e-05   1.9390965e-05   3.8163119e-05   9.9103039e-06  -8.0676982e-06   1.3312892e-06   2.7811660e-05  -1.1228558e-05   1.0955352e-05   3.4806463e-05   1.8366949e-05   7.7337426e-05   1.5840546e-06   5.3046099e-05   3.6203868e-05   3.9924203e-05   2.3515838e-05   2.4042518e-05  -1.4648602e-05   0.0000000e+00   1.3992415e-05  -1.4570264e-05   4.8358454e-05  -9.3561216e-06  -3.4586788e-05   0.0000000e+00   0.0000000e+00   2.5698033e-05   7.6354487e-05   1.2333559e-04  -4.5136618e-05   4.4469351e-05  -9.9414603e-05  -7.7403189e-05  -1.8449507e-04  -2.2694432e-04  -3.6151259e-04  -4.6304834e-05   2.9047522e-06  -1.9514519e-05  -1.0537761e-04  -2.7122323e-04  -3.8495705e-04  -5.7429344e-04  -3.1472446e-04  -8.0712865e-05  -1.2168275e-05   2.4220429e-04   3.8075765e-04  -6.9128957e-05  -4.2274910e-05   7.2610763e-05  -1.8603771e-04  -1.1944432e-04  -1.6951204e-04  -1.4142014e-04  -3.5636183e-04   0.0000000e+00  -2.5426990e-04   9.0724182e-05   1.4378689e-04  -2.7988450e-04  -4.2024097e-04   0.0000000e+00   0.0000000e+00   1.4323766e-07   3.3665996e-04   4.0393274e-05  -2.2725904e-04  -3.5922886e-04  -1.9072397e-04  -4.1467751e-04  -2.1291669e-04  -2.6908290e-04  -4.2883252e-05  -4.1534544e-04  -4.8503133e-04  -7.3952316e-04  -5.5388601e-05  -1.5992707e-04  -1.8928732e-04  -1.5566897e-04  -3.0246122e-04  -6.0661884e-04  -1.8115611e-03  -9.9824085e-04  -1.0066065e-03   9.0089129e-05  -4.5969499e-04   3.1067495e-05   1.7267452e-04  -1.4400065e-03  -1.0379663e-03  -7.0085567e-04   4.0804575e-04   0.0000000e+00   3.0517771e-04  -3.8070257e-04  -9.1874625e-04  -1.8088216e-04   4.7248387e-04   0.0000000e+00   0.0000000e+00  -4.1143571e-05  -1.1978926e-04  -1.0921740e-04   1.2687809e-04  -7.6102447e-05  -7.9621672e-05  -7.9975372e-05  -1.5831330e-04   5.0076758e-05  -3.0084759e-04  -4.1082634e-05  -1.4287404e-04  -1.0017593e-04  -8.7000660e-05  -1.9343572e-04  -1.5406873e-04  -2.6168172e-04  -2.3871631e-04  -8.6835252e-05  -1.0494937e-04  -1.3450827e-04  -1.1969090e-04  -7.6002725e-05  -8.1943339e-05  -6.7280056e-05  -3.0792530e-05  -1.5737755e-04  -1.5795870e-04  -2.2103988e-04  -3.3029346e-04   0.0000000e+00  -2.0692135e-04  -1.3440055e-05  -6.8703340e-05  -4.3965723e-04  -4.4339218e-04   0.0000000e+00   0.0000000e+00  -7.5379813e-05   8.5718428e-05   1.3643001e-04   1.2958772e-04   1.1602182e-04   1.8295554e-04   1.2489140e-04   1.1795480e-04   5.6080281e-05   3.6584392e-05   1.6264730e-04   4.5626506e-05   1.5631842e-04   8.5537108e-05   1.3710154e-04   1.4565983e-05   4.8833504e-05   1.1006214e-04   1.7657762e-04   2.6838980e-04   1.1095182e-04   1.2315823e-04   2.3530856e-04   2.0054923e-04   1.7421056e-04   1.1208233e-04   1.9227690e-04  -2.2952517e-05   5.9795586e-05   3.4262248e-05   0.0000000e+00   9.8359353e-05   2.9120675e-05   5.9079066e-05   4.4834625e-05  -1.0951424e-05   0.0000000e+00   0.0000000e+00   6.1538369e-05   3.0759120e-05   1.6592118e-05   8.4681213e-05   7.0025770e-05   2.8373717e-05   1.2813810e-05   4.9778767e-05   1.4402626e-04   3.8575493e-05   4.3993131e-05   1.8799288e-05   2.1084685e-05   1.6949610e-05   2.6316278e-05   1.1839244e-04   5.8372003e-05   6.5977079e-05  -9.2120895e-06  -1.2571282e-04   1.9438091e-05   1.7176839e-05   7.5574736e-05   3.3065196e-05   1.4119283e-04   7.0114801e-05   3.5285761e-05   3.2471600e-05  -3.3023201e-09   5.6805625e-05   0.0000000e+00   8.7222010e-05   1.1025593e-05  -2.0185378e-05  -1.3240377e-05  -1.0572430e-05   0.0000000e+00   0.0000000e+00   3.6612285e-05   5.3514998e-05  -1.3904516e-05   8.6278520e-05   4.4757245e-05   4.2092123e-05   6.3476208e-05  -5.1223831e-05   3.7412966e-06  -1.6306622e-04   7.3030151e-05   1.6183745e-06   7.3810333e-05   3.8244177e-05  -6.6846174e-05  -1.1403488e-04  -7.3257225e-05  -1.5522811e-05   7.1567277e-05   1.2066164e-05  -1.3459082e-04  -9.4652310e-05  -4.0057330e-05  -9.5011033e-06  -2.8303500e-05  -3.7205641e-05  -1.6914598e-04  -8.6768219e-05  -7.2060129e-05  -2.1743467e-04   0.0000000e+00  -9.2186577e-05  -2.9806244e-05  -1.8226613e-04  -2.9860755e-04  -3.3399978e-04   0.0000000e+00   0.0000000e+00   3.0113896e-05   1.6408475e-04   6.3471265e-05   3.9021659e-05   1.1664720e-04   1.0289921e-04   6.1906354e-05   2.2438116e-04   1.2000040e-04   6.0599669e-05   3.5831527e-05   6.8929428e-05   8.8717624e-05   4.3970664e-05   8.6782245e-05   8.2197966e-05   5.5691094e-05   7.8429957e-05   1.0991121e-04   2.1385068e-04   3.7384297e-05   1.1822166e-05   7.9890756e-05   6.2113722e-05   6.7477926e-05   9.1464321e-05   2.1019061e-04   2.5977726e-04   1.5803466e-04   1.9689414e-04   0.0000000e+00   2.5637587e-04   3.3759593e-05   2.4198170e-04   2.5138097e-04   2.3569116e-04   0.0000000e+00   0.0000000e+00   6.3879600e-05   8.4896872e-04   9.5093485e-04   9.1506074e-04   1.0141254e-03   1.2846747e-03   8.1120254e-04   9.0182138e-04   3.9460172e-04   5.3011900e-04   1.1249454e-03   7.2908747e-04   8.5765626e-04   7.8734757e-04   4.7307047e-04   2.1105492e-04   5.7970877e-04   7.3471610e-04   1.6804574e-03   1.6585760e-04   8.7074453e-04   7.7515938e-04   1.1650141e-03   7.7586416e-04   1.2363684e-03   1.1586719e-03   1.3723640e-03   1.2257192e-03   1.0895324e-03   4.1208270e-04   0.0000000e+00   1.1109179e-03   2.8498348e-04   9.7668399e-04   9.8375765e-04   4.1454485e-04   0.0000000e+00   0.0000000e+00   5.8690106e-04   9.8332279e-05   2.1831072e-05  -7.6407468e-05  -1.2170371e-05  -2.4018649e-06  -9.0861215e-05   1.3943134e-04   2.3086769e-05   3.5227701e-04  -1.5930202e-04  -3.5191743e-05  -1.4014013e-04   1.5017603e-05   1.1135676e-04   1.0396568e-04   3.4174628e-04   1.7939937e-04  -3.2806675e-04  -1.6272519e-04  -2.7289581e-04  -2.4870116e-04   4.2279233e-05  -1.1248819e-04   4.8755699e-05   4.7069612e-05  -3.4921338e-04  -1.0106748e-04  -3.6567346e-05   4.4952051e-04   0.0000000e+00   1.2896900e-04  -5.0819928e-06   4.1137692e-05   3.0926377e-04   6.5250633e-04   0.0000000e+00   0.0000000e+00  -2.3997880e-05   3.1503125e-04  -6.2684876e-04   1.0942185e-04   2.2762975e-04   1.3679409e-04   6.5839098e-05   3.8289392e-04   6.7656384e-05   1.3497674e-04   1.3020343e-04  -6.5891577e-04  -4.8408593e-04   1.0332251e-04   4.3639705e-05   1.2306720e-04   4.6580361e-05  -1.6282791e-04  -2.2598746e-04  -4.9005159e-04  -1.6802030e-03  -1.4871130e-03   4.7468866e-04   2.5285023e-05   9.2009439e-04   8.7104526e-04  -9.5638476e-04  -1.2833866e-03  -6.3813427e-04   4.2954984e-04   0.0000000e+00   3.2524611e-04  -2.3922602e-04  -8.5526848e-04   5.3811023e-05   1.3662547e-04   0.0000000e+00   0.0000000e+00   3.5658275e-05   3.7299665e-04   4.9055876e-04   4.9174472e-04   3.6670728e-04   4.8488578e-04   2.1177720e-04   1.2477853e-03   1.3356178e-03   2.5411071e-03   2.1392863e-04   5.6432207e-04   2.8877483e-04   3.7179948e-04   1.7707508e-03   2.0369758e-03   2.2905007e-03   1.9096911e-03   5.5762587e-04   6.3696036e-04   5.2470512e-04   4.4673464e-04   5.2754203e-04   2.6140566e-04  -2.7112075e-05   4.1176459e-04   6.8308107e-04   6.1379630e-04   8.1401696e-04   2.0612914e-03   0.0000000e+00   8.8971959e-04   3.9087240e-04   2.8585760e-06   2.0523403e-03   2.6441773e-03   0.0000000e+00   0.0000000e+00   1.1980436e-04
   7.3259521e-05   6.7277318e-05   2.8107601e-05   5.2026625e-05   5.0391632e-05   2.5721192e-05   7.5359308e-06   8.3085283e-07  -5.3791911e-07   2.8682885e-05   1.9675870e-05   1.7911412e-05   3.9354437e-05   8.9445949e-06  -8.6040529e-06  -2.6685517e-06   2.3982579e-05  -1.5651531e-05   1.6695560e-06   3.5349536e-05   1.7164758e-05   7.6529702e-05  -1.2819531e-06   5.5190121e-05   3.5282707e-05   4.0103241e-05   2.5442554e-05   2.1987349e-05  -2.3146385e-05   0.0000000e+00   1.2217486e-05  -1.2196869e-05   4.6138921e-05  -2.2059658e-05  -4.4842812e-05   0.0000000e+00   0.0000000e+00   2.6857908e-05   9.5128379e-05   1.3129187e-04  -2.9840971e-05   7.6839049e-05  -1.0139452e-04  -8.5675410e-05  -1.8072125e-04  -2.3597155e-04  -3.7855690e-04  -3.5216860e-05   1.1975419e-05  -2.3462616e-05  -1.0677043e-04  -2.7990056e-04  -4.0400600e-04  -6.0453470e-04  -3.3312573e-04  -7.8386663e-05  -1.6810845e-05   2.5678900e-04   4.0427166e-04  -6.8533293e-05  -4.3537232e-05   9.0953138e-05  -1.9102237e-04  -1.2539664e-04  -1.6987380e-04  -1.4926368e-04  -3.7455957e-04   0.0000000e+00  -2.3751992e-04   8.0753760e-05   1.6463612e-04  -2.9217822e-04  -4.5136609e-04   0.0000000e+00   0.0000000e+00   1.1670824e-05   3.1368665e-04  -6.5753605e-06  -2.4786209e-04  -4.0517480e-04  -2.3251014e-04  -4.5436748e-04  -2.2428691e-04  -2.5628239e-04  -5.0933605e-05  -4.5071119e-04  -5.1810660e-04  -8.0559185e-04  -4.5091113e-05  -1.5073375e-04  -1.7615189e-04  -1.8130153e-04  -3.3398754e-04  -7.1150217e-04  -1.9137377e-03  -1.1121319e-03  -1.1379235e-03   5.6187038e-05  -5.2409282e-04  -4.5765933e-05   1.5104269e-04  -1.5395648e-03  -1.1453432e-03  -7.6219143e-04   4.2491794e-04   0.0000000e+00   3.0317805e-04  -4.0335973e-04  -9.6428073e-04  -1.9383755e-04   5.0529029e-04   0.0000000e+00   0.0000000e+00  -3.7445973e-05  -1.2449343e-04  -1.1973118e-04   1.2452095e-04  -6.5572758e-05  -8.7837182e-05  -8.7306525e-05  -1.5889264e-04   5.4119078e-05  -3.1107210e-04  -4.5729598e-05  -1.5506840e-04  -1.1121406e-04  -9.2245618e-05  -1.9644725e-04  -1.5588396e-04  -2.6633397e-04  -2.5199642e-04  -8.9207716e-05  -1.1069301e-04  -1.5837508e-04  -1.4068077e-04  -9.0519252e-05  -8.7891016e-05  -5.3571051e-05  -2.8700633e-05  -1.7052991e-04  -1.6685752e-04  -2.3152836e-04  -3.3786236e-04   0.0000000e+00  -2.1525746e-04  -1.6963401e-05  -7.9188507e-05  -4.6008803e-04  -4.5490229e-04   0.0000000e+00   0.0000000e+00  -8.3692773e-05   1.0323562e-04   1.4289842e-04   1.3039281e-04   1.2663260e-04   1.9706794e-04   1.3371664e-04   1.2289307e-04   5.2473036e-05   3.8568987e-05   1.6796476e-04   4.7020339e-05   1.6696156e-04   8.4321637e-05   1.3527276e-04   1.1933936e-05   5.7837724e-05   1.1737685e-04   1.8587852e-04   2.5435505e-04   1.0635408e-04   1.2420551e-04   2.4886127e-04   2.1083427e-04   1.8484252e-04   1.1605246e-04   1.8795790e-04  -4.4273778e-05   5.5405023e-05   4.4811933e-05   0.0000000e+00   1.1337189e-04   3.0362485e-05   5.5137334e-05   5.2108760e-05   2.5253472e-06   0.0000000e+00   0.0000000e+00   6.4030449e-05   3.6237936e-05   1.7327679e-05   8.5277661e-05   8.2194376e-05   2.9228013e-05   1.4978955e-05   5.7788808e-05   1.5673522e-04   3.3051841e-05   5.0739384e-05   1.8615411e-05   2.2204250e-05   1.7679939e-05   2.9000878e-05   1.2879223e-04   6.4626580e-05   6.4835874e-05   8.1899741e-07  -1.3563503e-04   2.0894393e-05   1.5382586e-05   7.7270885e-05   3.7512320e-05   1.4972402e-04   6.6865733e-05   3.6065303e-05   2.7430376e-05  -3.4180394e-06   5.5812851e-05   0.0000000e+00   9.5387899e-05   1.0939817e-05  -3.3941743e-05  -1.7600449e-05  -1.5828167e-05   0.0000000e+00   0.0000000e+00   4.2091049e-05   6.4109624e-05  -1.0625547e-05   9.0526075e-05   4.4175427e-05   4.7038308e-05   7.1136298e-05  -7.1541120e-05  -2.7173663e-05  -1.9600505e-04   7.5504544e-05   1.0516411e-06   9.0358011e-05   3.0703031e-05  -9.1102819e-05  -1.5587572e-04  -1.2562229e-04  -4.0687742e-05   6.6902338e-05   1.2630831e-05  -1.4011958e-04  -9.3818436e-05  -4.1204106e-05  -9.8767764e-06  -3.0183049e-05  -3.9779381e-05  -1.7197940e-04  -8.8416056e-05  -7.0894085e-05  -2.3344693e-04   0.0000000e+00  -8.0513304e-05  -4.2848873e-05  -1.8754134e-04  -3.2599647e-04  -3.5662611e-04   0.0000000e+00   0.0000000e+00   2.8974155e-05   1.4677991e-04   5.1455934e-05   3.5958086e-05   1.1575224e-04   9.3108154e-05   5.6551737e-05   2.1697080e-04   1.1694103e-04   4.2963894e-05   3.3011700e-05   6.6335036e-05   9.1285808e-05   3.9772478e-05   7.6912822e-05   7.2545890e-05   4.3548008e-05   7.1348478e-05   1.1931743e-04   2.1933132e-04   4.2113108e-05   2.1135889e-05   7.4567320e-05   6.8346264e-05   6.9027462e-05   8.2874883e-05   2.1795838e-04   2.6389452e-04   1.4957302e-04   1.7734786e-04   0.0000000e+00   2.4568209e-04   3.6289515e-05   2.4368109e-04   2.3530553e-04   2.1182411e-04   0.0000000e+00   0.0000000e+00   5.7197784e-05   8.4564134e-04   9.2475883e-04   8.8429031e-04   9.6960840e-04   1.2736991e-03   8.3075653e-04   8.3920717e-04   3.6690485e-04   4.9629798e-04   1.1328453e-03   7.2631579e-04   8.8676059e-04   7.6473541e-04   4.0973633e-04   2.0407792e-04   5.6461982e-04   7.3150834e-04   1.7293451e-03   1.5266467e-04   8.7246026e-04   7.6563384e-04   1.1348853e-03   8.0557012e-04   1.2092164e-03   1.1323018e-03   1.4125326e-03   1.2432785e-03   1.0537296e-03   3.8732580e-04   0.0000000e+00   1.0610302e-03   2.5067647e-04   1.0075644e-03   9.8471932e-04   3.9102953e-04   0.0000000e+00   0.0000000e+00   5.4015490e-04   9.9296594e-05   2.7647659e-05  -6.5983925e-05  -6.5478352e-06   2.2968059e-07  -9.7037730e-05   1.6926527e-04   5.5028257e-05   3.6990958e-04  -1.5907117e-04  -3.7240914e-05  -1.4787135e-04   2.0679047e-05   1.3668396e-04   1.2847363e-04   3.6850244e-04   1.8802670e-04  -3.3728679e-04  -1.6956849e-04  -2.8631105e-04  -2.7451252e-04   4.8963714e-05  -1.1992795e-04   4.9760590e-05   5.9291096e-05  -3.5887341e-04  -1.0007948e-04  -3.5045432e-05   4.7592025e-04   0.0000000e+00   1.5905757e-04  -5.6930500e-06   3.4489907e-05   3.2117068e-04   6.9311753e-04   0.0000000e+00   0.0000000e+00  -1.4235621e-05   3.4319121e-04  -6.7639774e-04   1.5866716e-04   2.6657976e-04   1.6072620e-04   8.5253951e-05   4.3782627e-04   1.0120908e-04   1.3971082e-04   1.6297077e-04  -6.8643513e-04  -5.0038146e-04   1.2544572e-04   7.0137840e-05   1.4322800e-04   6.6219858e-05  -1.5311090e-04  -2.5952907e-04  -5.3082541e-04  -1.7849301e-03  -1.5719454e-03   5.3483825e-04   3.5971799e-05   1.0622018e-03   9.7338376e-04  -9.8527619e-04  -1.3749674e-03  -6.7817258e-04   4.7132617e-04   0.0000000e+00   3.8044707e-04  -2.2995953e-04  -9.0405541e-04   6.4895741e-05   1.3065720e-04   0.0000000e+00   0.0000000e+00   6.1524828e-05   3.8891615e-04   5.1056640e-04   4.9122406e-04   3.5512049e-04   4.8491987e-04   1.9808384e-04   1.3097166e-03   1.4456879e-03   2.6025801e-03   2.1233979e-04   5.7545270e-04   2.9448084e-04   3.8179577e-04   1.8674457e-03   2.1762678e-03   2.4293012e-03   1.9816313e-03   5.9974306e-04   6.5114026e-04   5.7852779e-04   4.9425621e-04   5.0674826e-04   2.6095694e-04  -6.9874188e-05   4.2884123e-04   7.4346311e-04   6.5664105e-04   8.5156007e-04   2.1264372e-03   0.0000000e+00   9.0343116e-04   4.1078298e-04   2.5073675e-05   2.0661949e-03   2.7170244e-03   0.0000000e+00   0.0000000e+00   1.0930622e-04
   7.1852800e-05   6.6890249e-05   2.8080617e-05   5.2413016e-05   4.9523764e-05   2.3659833e-05   6.8905252e-06   4.6856075e-06  -7.9264080e-06   2.8287633e-05   1.7078419e-05   1.5414365e-05   3.9719770e-05   7.2858172e-06  -9.4197781e-06  -7.9798224e-06   1.8919023e-05  -2.0309095e-05  -9.2021832e-06   3.4238054e-05   1.4691002e-05   7.4338546e-05  -4.5442572e-06   5.6425447e-05   3.3220447e-05   3.8661591e-05   2.6734469e-05   1.8696980e-05  -3.2224341e-05   0.0000000e+00   9.7110544e-06  -1.0173276e-05   4.2833856e-05  -3.6183707e-05  -5.5881351e-05   0.0000000e+00   0.0000000e+00   2.7379402e-05   1.1606973e-04   1.4083276e-04  -1.3279264e-05   1.1325615e-04  -9.8639829e-05  -9.1266553e-05  -1.7203234e-04  -2.4233021e-04  -3.9159330e-04  -2.2192658e-05   2.2746318e-05  -2.5818320e-05  -1.0536201e-04  -2.8473594e-04  -4.1883668e-04  -6.2885455e-04  -3.4668014e-04  -7.3561619e-05  -1.8707176e-05   2.6822589e-04   4.2066882e-04  -6.4494985e-05  -4.3260202e-05   1.1205034e-04  -1.9063397e-04  -1.2721990e-04  -1.6633636e-04  -1.5206014e-04  -3.8587943e-04   0.0000000e+00  -2.1386770e-04   7.1169804e-05   1.8291698e-04  -2.9910392e-04  -4.7604062e-04   0.0000000e+00   0.0000000e+00   2.4895510e-05   2.8570300e-04  -5.7354996e-05  -2.6775327e-04  -4.4945492e-04  -2.7540487e-04  -4.9230185e-04  -2.3354234e-04  -2.3974050e-04  -6.1765643e-05  -4.8361448e-04  -5.4526202e-04  -8.6605646e-04  -3.2828155e-05  -1.3570133e-04  -1.6130271e-04  -2.0491538e-04  -3.6412604e-04  -8.1012772e-04  -1.9794822e-03  -1.2180366e-03  -1.2612009e-03   1.7996962e-05  -5.8644537e-04  -1.3054919e-04   1.2283490e-04  -1.6234791e-03  -1.2396741e-03  -8.1820877e-04   4.3402197e-04   0.0000000e+00   2.9533945e-04  -4.2004837e-04  -1.0013487e-03  -2.0195907e-04   5.3243031e-04   0.0000000e+00   0.0000000e+00  -3.3254163e-05  -1.2726692e-04  -1.2838437e-04   1.1854809e-04  -5.3613401e-05  -9.4797116e-05  -9.3229843e-05  -1.5707987e-04   5.4731294e-05  -3.1531779e-04  -5.0196319e-05  -1.6471616e-04  -1.2082667e-04  -9.5679119e-05  -1.9568970e-04  -1.5551993e-04  -2.6555042e-04  -2.6078635e-04  -9.0542391e-05  -1.1680830e-04  -1.8119620e-04  -1.6168478e-04  -1.0458818e-04  -9.2892523e-05  -3.9367766e-05  -2.6387058e-05  -1.8041473e-04  -1.7243753e-04  -2.3772250e-04  -3.3887944e-04   0.0000000e+00  -2.2023770e-04  -2.1567482e-05  -8.9735189e-05  -4.7203362e-04  -4.5718353e-04   0.0000000e+00   0.0000000e+00  -9.0757422e-05   1.2128716e-04   1.4786599e-04   1.2774680e-04   1.3529089e-04   2.0943770e-04   1.4168865e-04   1.2791919e-04   4.8658622e-05   4.0916966e-05   1.7112655e-04   4.8052972e-05   1.7651937e-04   8.1746723e-05   1.3274884e-04   1.0284451e-05   6.8622834e-05   1.2456423e-04   1.9378476e-04   2.3696298e-04   1.0009594e-04   1.2331238e-04   2.5923669e-04   2.1905864e-04   1.9303398e-04   1.1848338e-04   1.8079497e-04  -6.6062555e-05   5.0923375e-05   5.6573682e-05   0.0000000e+00   1.2913322e-04   3.2546210e-05   5.0781375e-05   6.1656476e-05   1.9136148e-05   0.0000000e+00   0.0000000e+00   6.6082354e-05   4.2557601e-05   1.8983076e-05   8.4271391e-05   9.3102846e-05   3.0664240e-05   1.7577479e-05   6.6579687e-05   1.6716681e-04   2.9717943e-05   5.7917510e-05   1.9096581e-05   2.3554625e-05   1.9393560e-05   3.3464970e-05   1.3888153e-04   7.2630922e-05   6.4343185e-05   1.2292720e-05  -1.4292745e-04   2.2578320e-05   1.3480012e-05   7.9354592e-05   4.2279070e-05   1.5470293e-04   6.2225108e-05   3.7494523e-05   2.2384398e-05  -5.3815456e-06   5.5743089e-05   0.0000000e+00   1.0418045e-04   1.1147815e-05  -4.7567973e-05  -1.7870338e-05  -1.7294843e-05   0.0000000e+00   0.0000000e+00   4.7946107e-05   7.5308472e-05  -6.4214391e-06   9.3281906e-05   4.2474130e-05   5.1589808e-05   7.8981244e-05  -9.2960225e-05  -6.2205875e-05  -2.2803220e-04   7.7522738e-05   1.7186909e-06   1.0842078e-04   2.3129321e-05  -1.1459072e-04  -1.9901459e-04  -1.7854077e-04  -6.4952340e-05   5.9708866e-05   1.2731050e-05  -1.4233222e-04  -9.0840298e-05  -4.1881881e-05  -9.0036370e-06  -3.2444060e-05  -4.1973883e-05  -1.7107241e-04  -8.6526416e-05  -6.7319720e-05  -2.4633889e-04   0.0000000e+00  -6.5329880e-05  -5.3871655e-05  -1.8495263e-04  -3.4788428e-04  -3.7404017e-04   0.0000000e+00   0.0000000e+00   2.7934937e-05   1.2720054e-04   3.9458410e-05   3.2050660e-05   1.1327089e-04   8.1559549e-05   5.0141129e-05   2.0603082e-04   1.1080183e-04   2.2929323e-05   2.9148000e-05   6.2341644e-05   9.2199070e-05   3.4486087e-05   6.5151737e-05   6.0074822e-05   2.8878978e-05   6.2084979e-05   1.2604986e-04   2.2508405e-04   4.4864522e-05   3.0471449e-05   6.8521132e-05   7.4583719e-05   7.0924479e-05   7.2147011e-05   2.2349391e-04   2.6370989e-04   1.3821427e-04   1.5380804e-04   0.0000000e+00   2.3161714e-04   3.8715442e-05   2.4225412e-04   2.1659177e-04   1.8404653e-04   0.0000000e+00   0.0000000e+00   4.9453999e-05   8.3293428e-04   8.8470550e-04   8.3948380e-04   9.1339552e-04   1.2439406e-03   8.4078769e-04   7.6709108e-04   3.3614780e-04   4.5657893e-04   1.1234589e-03   7.1172890e-04   9.0693708e-04   7.3201101e-04   3.3917892e-04   1.9743852e-04   5.4314781e-04   7.1903705e-04   1.7539745e-03   1.3939282e-04   8.6007797e-04   7.4703597e-04   1.0863072e-03   8.2687728e-04   1.1690073e-03   1.0927909e-03   1.4358537e-03   1.2402339e-03   1.0013385e-03   3.6090703e-04   0.0000000e+00   9.9772253e-04   2.1114136e-04   1.0272907e-03   9.7743301e-04   3.6478313e-04   0.0000000e+00   0.0000000e+00   4.8809530e-04   9.8614293e-05   3.2990072e-05  -5.2998401e-05  -6.4784018e-07   3.2900814e-06  -1.0117857e-04   1.9983292e-04   8.8190891e-05   3.8992616e-04  -1.5567090e-04  -3.7754645e-05  -1.5340209e-04   2.7888157e-05   1.6590925e-04   1.5511875e-04   3.9300746e-04   1.9682591e-04  -3.4093335e-04  -1.7185913e-04  -2.9656925e-04  -2.9653752e-04   5.5780601e-05  -1.2554073e-04   5.0367136e-05   7.3827492e-05  -3.6267137e-04  -9.6087184e-05  -3.1238797e-05   4.9939945e-04   0.0000000e+00   1.8967754e-04  -8.7671224e-06   2.8204704e-05   3.3339752e-04   7.2881794e-04   0.0000000e+00   0.0000000e+00  -4.0494736e-06   3.6679730e-04  -7.1712244e-04   2.1336024e-04   3.1017272e-04   1.8183504e-04   9.9984869e-05   4.8636142e-04   1.3625347e-04   1.4011409e-04   1.9219918e-04  -7.0505704e-04  -5.1095121e-04   1.4571518e-04   9.4284240e-05   1.5812229e-04   8.2160957e-05  -1.4157821e-04  -3.0064231e-04  -5.7175547e-04  -1.8635015e-03  -1.6331683e-03   5.8800390e-04   4.2969935e-05   1.1891817e-03   1.0636792e-03  -1.0050213e-03  -1.4447465e-03  -7.0844761e-04   5.0363716e-04   0.0000000e+00   4.2965868e-04  -2.2277490e-04  -9.3416431e-04   7.2104643e-05   1.2067185e-04   0.0000000e+00   0.0000000e+00   8.6240703e-05   4.0160490e-04   5.2482395e-04   4.8032031e-04   3.3807119e-04   4.7737381e-04   1.7953633e-04   1.3619672e-03   1.5364731e-03   2.6469274e-03   2.0325116e-04   5.7997925e-04   2.9506818e-04   3.9089050e-04   1.9499744e-03   2.2958885e-03   2.5546220e-03   2.0399385e-03   6.3066279e-04   6.6086046e-04   6.2622134e-04   5.3875818e-04   4.7680478e-04   2.5513519e-04  -1.1329186e-04   4.4304412e-04   7.9175790e-04   6.9420789e-04   8.8156355e-04   2.1724577e-03   0.0000000e+00   9.1554406e-04   4.2017904e-04   5.6250804e-05   2.0718313e-03   2.7719128e-03   0.0000000e+00   0.0000000e+00   9.7646422e-05
   6.9092712e-05   6.4904006e-05   2.7373129e-05   5.1436538e-05   4.7623267e-05   2.1084081e-05   5.4849575e-06   8.1960415e-06  -1.6064630e-05   2.7401750e-05   1.3829655e-05   1.1994005e-05   3.9282521e-05   4.9424248e-06  -1.0584333e-05  -1.4412301e-05   1.2850578e-05  -2.5035241e-05  -2.1175053e-05   3.1435673e-05   1.0963416e-05   7.0997230e-05  -8.0646785e-06   5.6778720e-05   3.0118196e-05   3.5561337e-05   2.7169374e-05   1.4241458e-05  -4.1511735e-05   0.0000000e+00   6.6535045e-06  -8.7116131e-06   3.8703641e-05  -5.1169296e-05  -6.7311099e-05   0.0000000e+00   0.0000000e+00   2.7251542e-05   1.3884299e-04   1.5252656e-04   4.0638166e-06   1.5227290e-04  -9.0935290e-05  -9.3857556e-05  -1.5897883e-04  -2.4628379e-04  -4.0072753e-04  -7.6838454e-06   3.5074662e-05  -2.6310162e-05  -1.0122248e-04  -2.8606519e-04  -4.2989097e-04  -6.4755118e-04  -3.5536551e-04  -6.6698448e-05  -1.7179504e-05   2.7695693e-04   4.3005945e-04  -5.6981056e-05  -4.1487075e-05   1.3529602e-04  -1.8496654e-04  -1.2493729e-04  -1.5931873e-04  -1.4945144e-04  -3.9064946e-04   0.0000000e+00  -1.8453221e-04   6.2783555e-05   1.9830893e-04  -3.0069337e-04  -4.9419677e-04   0.0000000e+00   0.0000000e+00   3.9489741e-05   2.5378902e-04  -1.1005045e-04  -2.8732343e-04  -4.9137679e-04  -3.1877788e-04  -5.2850239e-04  -2.4113355e-04  -2.2080567e-04  -7.5322556e-05  -5.1406457e-04  -5.6609702e-04  -9.2051971e-04  -1.9083435e-05  -1.1553855e-04  -1.4572314e-04  -2.2599654e-04  -3.9289869e-04  -9.0020178e-04  -2.0089766e-03  -1.3136381e-03  -1.3734109e-03  -2.3398784e-05  -6.4578782e-04  -2.1986722e-04   8.9565150e-05  -1.6918740e-03  -1.3182698e-03  -8.6796432e-04   4.3531948e-04   0.0000000e+00   2.8202311e-04  -4.3113787e-04  -1.0313330e-03  -2.0458737e-04   5.5363088e-04   0.0000000e+00   0.0000000e+00  -2.8897276e-05  -1.2828127e-04  -1.3498098e-04   1.0927700e-04  -4.0855113e-05  -1.0029317e-04  -9.7592969e-05  -1.5333689e-04   5.1663639e-05  -3.1358164e-04  -5.4482997e-05  -1.7159667e-04  -1.2869233e-04  -9.7243142e-05  -1.9142907e-04  -1.5329755e-04  -2.5964964e-04  -2.6486902e-04  -9.1095714e-05  -1.2352125e-04  -2.0216419e-04  -1.8195751e-04  -1.1779571e-04  -9.6869331e-05  -2.5583038e-05  -2.3998864e-05  -1.8660812e-04  -1.7447303e-04  -2.3951241e-04  -3.3350104e-04   0.0000000e+00  -2.2208312e-04  -2.7137011e-05  -9.9923833e-05  -4.7519496e-04  -4.5041167e-04   0.0000000e+00   0.0000000e+00  -9.6388504e-05   1.3919125e-04   1.5127678e-04   1.2179273e-04   1.4134722e-04   2.1970174e-04   1.4863345e-04   1.3288071e-04   4.5009649e-05   4.3443761e-05   1.7207935e-04   4.8502418e-05   1.8467404e-04   7.7881770e-05   1.2977327e-04   9.7455563e-06   8.0579224e-05   1.3136964e-04   2.0029165e-04   2.1716797e-04   9.2264397e-05   1.2031822e-04   2.6607207e-04   2.2504275e-04   1.9842837e-04   1.1934847e-04   1.7093350e-04  -8.7730615e-05   4.6422622e-05   6.8954576e-05   0.0000000e+00   1.4492173e-04   3.5825859e-05   4.5367505e-05   7.2882499e-05   3.7971733e-05   0.0000000e+00   0.0000000e+00   6.7612593e-05   4.9462715e-05   2.1593744e-05   8.1979747e-05   1.0206419e-04   3.2767778e-05   2.0589578e-05   7.5883652e-05   1.7513338e-04   2.9006488e-05   6.5401372e-05   2.0297305e-05   2.5201236e-05   2.2130267e-05   3.9661915e-05   1.4842414e-04   8.2238802e-05   6.4719385e-05   2.4817090e-05  -1.4717869e-04   2.4475878e-05   1.1583986e-05   8.2043274e-05   4.7332768e-05   1.5570719e-04   5.6492212e-05   3.9693875e-05   1.7612310e-05  -5.7448050e-06   5.6709683e-05   0.0000000e+00   1.1325990e-04   1.1801333e-05  -6.0776189e-05  -1.3938648e-05  -1.4831805e-05   0.0000000e+00   0.0000000e+00   5.4016282e-05   8.6651041e-05  -1.4700299e-06   9.4685096e-05   3.9877439e-05   5.5662823e-05   8.6979856e-05  -1.1491773e-04  -1.0026316e-04  -2.5919342e-04   7.9317009e-05   3.8373615e-06   1.2781075e-04   1.5945085e-05  -1.3665430e-04  -2.4265175e-04  -2.3081739e-04  -8.7688149e-05   5.0360741e-05   1.2990271e-05  -1.4103432e-04  -8.5480137e-05  -4.2181121e-05  -6.5042864e-06  -3.5091670e-05  -4.3892486e-05  -1.6623143e-04  -8.0500554e-05  -6.1495467e-05  -2.5669173e-04   0.0000000e+00  -4.7575641e-05  -6.1987551e-05  -1.7398720e-04  -3.6444800e-04  -3.8695558e-04   0.0000000e+00   0.0000000e+00   2.7271872e-05   1.0642172e-04   2.8086142e-05   2.7174602e-05   1.0929086e-04   6.8640384e-05   4.2902158e-05   1.9194914e-04   1.0127446e-04   1.4741906e-06   2.4038417e-05   5.7222739e-05   9.1219040e-05   2.8124775e-05   5.1897258e-05   4.5041598e-05   1.2021139e-05   5.1055197e-05   1.2948423e-04   2.3071707e-04   4.4903833e-05   3.9220377e-05   6.2020757e-05   8.0550853e-05   7.3075784e-05   5.9639181e-05   2.2648829e-04   2.5963285e-04   1.2460245e-04   1.2782751e-04   0.0000000e+00   2.1518420e-04   4.1009448e-05   2.3814347e-04   1.9687897e-04   1.5427848e-04   0.0000000e+00   0.0000000e+00   4.0833166e-05   8.1294705e-04   8.3438207e-04   7.8314967e-04   8.4946278e-04   1.1982521e-03   8.4199111e-04   6.8977585e-04   3.0433833e-04   4.1362306e-04   1.0978198e-03   6.8626427e-04   9.1885970e-04   6.9135918e-04   2.6452504e-04   1.9226316e-04   5.1737552e-04   6.9899997e-04   1.7567489e-03   1.2850601e-04   8.3618338e-04   7.2193458e-04   1.0224875e-03   8.4006699e-04   1.1196417e-03   1.0438963e-03   1.4443589e-03   1.2188992e-03   9.3693753e-04   3.3469170e-04   0.0000000e+00   9.2456918e-04   1.6872170e-04   1.0370045e-03   9.6372074e-04   3.3785163e-04   0.0000000e+00   0.0000000e+00   4.3313889e-04   9.6420881e-05   3.7653761e-05  -3.7893372e-05   5.2159455e-06   6.6397223e-06  -1.0320457e-04   2.3033833e-04   1.2146600e-04   4.1269939e-04  -1.4944255e-04  -3.6705204e-05  -1.5672113e-04   3.6434307e-05   1.9846050e-04   1.8351072e-04   4.1564923e-04   2.0627613e-04  -3.3965043e-04  -1.6908985e-04  -3.0362763e-04  -3.1403390e-04   6.2532184e-05  -1.2935672e-04   5.0844478e-05   9.0398376e-05  -3.6089240e-04  -8.8899081e-05  -2.5138606e-05   5.2029265e-04   0.0000000e+00   2.1982114e-04  -1.4421977e-05   2.3512316e-05   3.4641659e-04   7.5963916e-04   0.0000000e+00   0.0000000e+00   5.9920930e-06   3.8534095e-04  -7.4914428e-04   2.7174625e-04   3.5993939e-04   1.9856505e-04   1.0850199e-04   5.2654592e-04   1.7178005e-04   1.3607628e-04   2.1592642e-04  -7.1542790e-04  -5.1655457e-04   1.6312337e-04   1.1451946e-04   1.6695082e-04   9.2970236e-05  -1.2932078e-04  -3.4992128e-04  -6.1085157e-04  -1.9151678e-03  -1.6706812e-03   6.3190531e-04   4.5204896e-05   1.2965551e-03   1.1390996e-03  -1.0182374e-03  -1.4920433e-03  -7.2974207e-04   5.2518197e-04   0.0000000e+00   4.7029467e-04  -2.1941387e-04  -9.4490158e-04   7.4484056e-05   1.0692996e-04   0.0000000e+00   0.0000000e+00   1.0850979e-04   4.1141741e-04   5.3354957e-04   4.6085815e-04   3.1757607e-04   4.6343430e-04   1.5686136e-04   1.4048176e-03   1.6061962e-03   2.6787879e-03   1.8673574e-04   5.7809949e-04   2.9046493e-04   3.9971781e-04   2.0185857e-03   2.3939819e-03   2.6657877e-03   2.0863003e-03   6.4850084e-04   6.6583055e-04   6.6573709e-04   5.7865908e-04   4.3948607e-04   2.4418722e-04  -1.5549291e-04   4.5501917e-04   8.2567683e-04   7.2455215e-04   9.0368853e-04   2.2022449e-03   0.0000000e+00   9.2757971e-04   4.1850550e-04   9.4163433e-05   2.0738884e-03   2.8121372e-03   0.0000000e+00   0.0000000e+00   8.5616886e-05
   6.5177977e-05   6.1400837e-05   2.5983739e-05   4.9128939e-05   4.4818630e-05   1.8150312e-05   3.3437521e-06   1.1048124e-05  -2.4654609e-05   2.6054613e-05   1.0100420e-05   7.8108590e-06   3.8106442e-05   1.9674053e-06  -1.2149308e-05  -2.1687422e-05   6.0551249e-06  -2.9658019e-05  -3.3679325e-05   2.7021356e-05   6.0884080e-06   6.6779606e-05  -1.1683740e-05   5.6312461e-05   2.6134449e-05   3.0866707e-05   2.6560728e-05   8.7694669e-06  -5.0624405e-05   0.0000000e+00   3.2694734e-06  -7.9528081e-06   3.4069252e-05  -6.6395725e-05  -7.8695480e-05   0.0000000e+00   0.0000000e+00   2.6503285e-05   1.6299429e-04   1.6681378e-04   2.1684083e-05   1.9226499e-04  -7.8378892e-05  -9.3319899e-05  -1.4234091e-04  -2.4823181e-04  -4.0623415e-04   7.8125268e-06   4.8769383e-05  -2.4801986e-05  -9.4547750e-05  -2.8435728e-04  -4.3782537e-04  -6.6111997e-04  -3.5942147e-04  -5.8384247e-05  -1.1816474e-05   2.8362013e-04   4.3299819e-04  -4.6200586e-05  -3.8351240e-05   1.5998388e-04  -1.7443987e-04  -1.1884668e-04  -1.4939089e-04  -1.4137556e-04  -3.8960147e-04   0.0000000e+00  -1.5102432e-04   5.6218400e-05   2.1070307e-04  -2.9722769e-04  -5.0610035e-04   0.0000000e+00   0.0000000e+00   5.5070335e-05   2.1903337e-04  -1.6269212e-04  -3.0698731e-04  -5.3029337e-04  -3.6200171e-04  -5.6301712e-04  -2.4757446e-04  -2.0092729e-04  -9.1270524e-05  -5.4219299e-04  -5.8045667e-04  -9.6877942e-04  -4.3774732e-06  -9.1287957e-05  -1.3034610e-04  -2.4425474e-04  -4.2039870e-04  -9.8015954e-04  -2.0045176e-03  -1.3970490e-03  -1.4720787e-03  -6.6834941e-05  -7.0130365e-04  -3.1006097e-04   5.3046348e-05  -1.7455151e-03  -1.3790048e-03  -9.1066717e-04   4.2914621e-04   0.0000000e+00   2.6377722e-04  -4.3729209e-04  -1.0555106e-03  -2.0139294e-04   5.6882098e-04   0.0000000e+00   0.0000000e+00  -2.4686883e-05  -1.2777743e-04  -1.3941720e-04   9.7225511e-05  -2.7934567e-05  -1.0417518e-04  -1.0032092e-04  -1.4820319e-04   4.4937338e-05  -3.0610867e-04  -5.8592450e-05  -1.7563048e-04  -1.3457228e-04  -9.6978475e-05  -1.8409411e-04  -1.4961338e-04  -2.4918793e-04  -2.6423509e-04  -9.1156434e-05  -1.3098497e-04  -2.2054122e-04  -2.0072583e-04  -1.2976309e-04  -9.9776880e-05  -1.3035066e-05  -2.1642138e-05  -1.8885455e-04  -1.7288625e-04  -2.3697649e-04  -3.2214036e-04   0.0000000e+00  -2.2117308e-04  -3.3473980e-05  -1.0927791e-04  -4.6962320e-04  -4.3513683e-04   0.0000000e+00   0.0000000e+00  -1.0048243e-04   1.5624391e-04   1.5310305e-04   1.1283361e-04   1.4423127e-04   2.2752847e-04   1.5435042e-04   1.3752679e-04   4.1836132e-05   4.5913792e-05   1.7079560e-04   4.8108383e-05   1.9107714e-04   7.2800164e-05   1.2649348e-04   1.0344927e-05   9.2965392e-05   1.3748837e-04   2.0540095e-04   1.9586874e-04   8.2917739e-05   1.1508406e-04   2.6909003e-04   2.2861733e-04   2.0076962e-04   1.1866471e-04   1.5849329e-04  -1.0876906e-04   4.1885720e-05   8.1283796e-05   0.0000000e+00   1.5992472e-04   4.0232524e-05   3.8130736e-05   8.4974874e-05   5.7948619e-05   0.0000000e+00   0.0000000e+00   6.8515150e-05   5.6610670e-05   2.5119181e-05   7.8803133e-05   1.0843588e-04   3.5561266e-05   2.3964327e-05   8.5355962e-05   1.8058427e-04   3.1113102e-05   7.3030445e-05   2.2199259e-05   2.7183815e-05   2.5836645e-05   4.7376852e-05   1.5716395e-04   9.3134783e-05   6.6061426e-05   3.7927288e-05  -1.4809700e-04   2.6554897e-05   9.7973130e-06   8.5470723e-05   5.2607086e-05   1.5251260e-04   4.9999809e-05   4.2696302e-05   1.3318294e-05  -4.5111741e-06   5.8666134e-05   0.0000000e+00   1.2218003e-04   1.3010792e-05  -7.3383898e-05  -6.0520241e-06  -8.6531996e-06   0.0000000e+00   0.0000000e+00   6.0109985e-05   9.7654343e-05   4.0222849e-06   9.4988209e-05   3.6691850e-05   5.9227670e-05   9.5126584e-05  -1.3683960e-04  -1.4013967e-04  -2.8968653e-04   8.1148657e-05   7.5741051e-06   1.4833707e-04   9.5124031e-06  -1.5675803e-04  -2.8609545e-04  -2.8152780e-04  -1.0847912e-04   3.9432068e-05   1.4232575e-05  -1.3613538e-04  -7.7465313e-05  -4.2183643e-05  -2.0330590e-06  -3.8072988e-05  -4.5676411e-05  -1.5733182e-04  -6.9820914e-05  -5.3663679e-05  -2.6530874e-04   0.0000000e+00  -2.8359344e-05  -6.6474872e-05  -1.5455593e-04  -3.7621839e-04  -3.9642180e-04   0.0000000e+00   0.0000000e+00   2.7241075e-05   8.5502182e-05   1.7841903e-05   2.1199781e-05   1.0391875e-04   5.4734124e-05   3.5042590e-05   1.7510869e-04   8.8104492e-05  -2.0355778e-05   1.7483785e-05   5.1290382e-05   8.8123479e-05   2.0723859e-05   3.7526345e-05   2.7767062e-05  -6.6306283e-06   3.8738056e-05   1.2913580e-04   2.3539813e-04   4.1548602e-05   4.6755762e-05   5.5320201e-05   8.5924570e-05   7.5346384e-05   4.5783994e-05   2.2654835e-04   2.5215408e-04   1.0943048e-04   1.0105180e-04   0.0000000e+00   1.9738011e-04   4.3119110e-05   2.3177945e-04   1.7767058e-04   1.2442728e-04   0.0000000e+00   0.0000000e+00   3.1513549e-05   7.8771555e-04   7.7752663e-04   7.1780424e-04   7.8152152e-04   1.1396889e-03   8.3513745e-04   6.1111082e-04   2.7328460e-04   3.6996682e-04   1.0572543e-03   6.5102951e-04   9.2327094e-04   6.4492291e-04   1.8864806e-04   1.8955548e-04   4.8939184e-04   6.7320113e-04   1.7409317e-03   1.2226043e-04   8.0382149e-04   6.9284507e-04   9.4681238e-04   8.4552290e-04   1.0648134e-03   9.8923457e-04   1.4405190e-03   1.1822814e-03   8.6526417e-04   3.1022088e-04   0.0000000e+00   8.4481316e-04   1.2571376e-04   1.0379651e-03   9.4511210e-04   3.1206817e-04   0.0000000e+00   0.0000000e+00   3.7724714e-04   9.2916048e-05   4.1480981e-05  -2.1186596e-05   1.0728201e-05   1.0128281e-05  -1.0314492e-04   2.5999312e-04   1.5380998e-04   4.3821235e-04  -1.4083350e-04  -3.4177772e-05  -1.5791211e-04   4.6013924e-05   2.3352454e-04   2.1317005e-04   4.3697363e-04   2.1679966e-04  -3.3431516e-04  -1.6100128e-04  -3.0753696e-04  -3.2652350e-04   6.9035296e-05  -1.3148436e-04   5.1470439e-05   1.0855589e-04  -3.5403760e-04  -7.8426071e-05  -1.6845994e-05   5.3893743e-04   0.0000000e+00   2.4852711e-04  -2.2555724e-05   2.1573454e-05   3.6046476e-04   7.8568934e-04   0.0000000e+00   0.0000000e+00   1.5362463e-05   3.9868808e-04  -7.7315913e-04   3.3162610e-04   4.1722747e-04   2.0958350e-04   1.0969397e-04   5.5696083e-04   2.0676897e-04   1.2774106e-04   2.3256092e-04  -7.1858723e-04  -5.1819964e-04   1.7682678e-04   1.2953893e-04   1.6937384e-04   9.7660028e-05  -1.1741231e-04  -4.0734696e-04  -6.4581069e-04  -1.9405718e-03  -1.6856004e-03   6.6474773e-04   4.1937934e-05   1.3811981e-03   1.1976152e-03  -1.0277983e-03  -1.5173957e-03  -7.4340998e-04   5.3530795e-04   0.0000000e+00   5.0026460e-04  -2.2115382e-04  -9.3664931e-04   7.1383625e-05   8.9849792e-05   0.0000000e+00   0.0000000e+00   1.2727978e-04   4.1868145e-04   5.3706372e-04   4.3505926e-04   2.9562047e-04   4.4437803e-04   1.3083646e-04   1.4386250e-03   1.6543427e-03   2.7021927e-03   1.6311158e-04   5.7003552e-04   2.8071912e-04   4.0868943e-04   2.0737295e-03   2.4694802e-03   2.7619483e-03   2.1221073e-03   6.5181121e-04   6.6558316e-04   6.9534455e-04   6.1248702e-04   3.9654085e-04   2.2841709e-04  -1.9494971e-04   4.6530650e-04   8.4353494e-04   7.4585274e-04   9.1766307e-04   2.2188467e-03   0.0000000e+00   9.4045309e-04   4.0582280e-04   1.3604290e-04   2.0755054e-03   2.8404013e-03   0.0000000e+00   0.0000000e+00   7.3879297e-05
   6.0344326e-05   5.6535196e-05   2.3943687e-05   4.5590861e-05   4.1275978e-05   1.5029066e-05   5.4531577e-07   1.2968878e-05  -3.3377353e-05   2.4293619e-05   6.0916835e-06   3.0817295e-06   3.6290718e-05  -1.5407954e-06  -1.4144069e-05  -2.9457763e-05  -1.1578098e-06  -3.4008038e-05  -4.6091878e-05   2.1187930e-05   2.5308889e-07   6.1983258e-05  -1.5228285e-05   5.5121174e-05   2.1474508e-05   2.4744592e-05   2.4781028e-05   2.5047458e-06  -5.9183417e-05   0.0000000e+00  -1.9087962e-07  -7.9535763e-06   2.9287837e-05  -8.1207080e-05  -8.9574329e-05   0.0000000e+00   0.0000000e+00   2.5201468e-05   1.8796118e-04   1.8395511e-04   3.9063177e-05   2.3153551e-04  -6.1386587e-05  -8.9716666e-05  -1.2307589e-04  -2.4867240e-04  -4.0855276e-04   2.3780110e-05   6.3589570e-05  -2.1295060e-05  -8.5645172e-05  -2.8018078e-04  -4.4346704e-04  -6.7021450e-04  -3.5932972e-04  -4.9280809e-05  -2.5260357e-06   2.8897547e-04   4.3039549e-04  -3.2596628e-05  -3.4064136e-05   1.8535534e-04  -1.5977595e-04  -1.0948622e-04  -1.3722781e-04  -1.2807435e-04  -3.8381341e-04   0.0000000e+00  -1.1505960e-04   5.1870802e-05   2.2018235e-04  -2.8922046e-04  -5.1232522e-04   0.0000000e+00   0.0000000e+00   7.1226069e-05   1.8256231e-04  -2.1329757e-04  -3.2710619e-04  -5.6557889e-04  -4.0444490e-04  -5.9586961e-04  -2.5337445e-04  -1.8154658e-04  -1.0900943e-04  -5.6820186e-04  -5.8843994e-04  -1.0107771e-03   1.0722642e-05  -6.4237577e-05  -1.1602256e-04  -2.5960867e-04  -4.4675667e-04  -1.0491509e-03  -1.9702270e-03  -1.4669240e-03  -1.5553970e-03  -1.1109736e-04  -7.5232870e-04  -3.9747316e-04   1.5261532e-05  -1.7857035e-03  -1.4203775e-03  -9.4573794e-04   4.1620897e-04   0.0000000e+00   2.4132874e-04  -4.3936764e-04  -1.0748356e-03  -1.9242072e-04   5.7811494e-04   0.0000000e+00   0.0000000e+00  -2.0903938e-05  -1.2603867e-04  -1.4167457e-04   8.3069055e-05  -1.5448340e-05  -1.0635563e-04  -1.0141801e-04  -1.4225553e-04   3.4831298e-05  -2.9337517e-04  -6.2524382e-05  -1.7687777e-04  -1.3831890e-04  -9.5022014e-05  -1.7424277e-04  -1.4491456e-04  -2.3491375e-04  -2.5908074e-04  -9.1025417e-05  -1.3926582e-04  -2.3569513e-04  -2.1722698e-04  -1.4016179e-04  -1.0160486e-04  -2.3703135e-06  -1.9374410e-05  -1.8708283e-04  -1.6775279e-04  -2.3037451e-04  -3.0545322e-04   0.0000000e+00  -2.1801083e-04  -4.0312677e-05  -1.1728962e-04  -4.5572593e-04  -4.1225626e-04   0.0000000e+00   0.0000000e+00  -1.0301866e-04   1.7175704e-04   1.5334176e-04   1.0130431e-04   1.4349534e-04   2.3263440e-04   1.5862091e-04   1.4153722e-04   3.9370086e-05   4.8066945e-05   1.6727146e-04   4.6595639e-05   1.9537093e-04   6.6583880e-05   1.2296694e-04   1.2021989e-05   1.0497684e-04   1.4258787e-04   2.0911108e-04   1.7386119e-04   7.2095849e-05   1.0750969e-04   2.6811764e-04   2.2963443e-04   1.9993121e-04   1.1649760e-04   1.4357432e-04  -1.2875680e-04   3.7229883e-05   9.2874959e-05   0.0000000e+00   1.7330661e-04   4.5662821e-05   2.8303469e-05   9.6986739e-05   7.7906319e-05   0.0000000e+00   0.0000000e+00   6.8667688e-05   6.3595236e-05   2.9447017e-05   7.5197875e-05   1.1167278e-04   3.9001836e-05   2.7621569e-05   9.4594940e-05   1.8360288e-04   3.5998108e-05   8.0617768e-05   2.4716856e-05   2.9514367e-05   3.0370574e-05   5.6242206e-05   1.6484155e-04   1.0485772e-04   6.8340969e-05   5.1105967e-05  -1.4553781e-04   2.8770761e-05   8.2052029e-06   8.9678446e-05   5.8002757e-05   1.4510421e-04   4.3089142e-05   4.6438297e-05   9.6224455e-06  -1.8361644e-06   6.1418778e-05   0.0000000e+00   1.3042278e-04   1.4831114e-05  -8.5303077e-05   5.2178493e-06   6.9821181e-07   0.0000000e+00   0.0000000e+00   6.6019370e-05   1.0785638e-04   9.8352803e-06   9.4543830e-05   3.3295029e-05   6.2307111e-05   1.0344657e-04  -1.5816676e-04  -1.8062588e-04  -3.1980427e-04   8.3289267e-05   1.3034924e-05   1.6982192e-04   4.1172633e-06  -1.7450124e-04  -3.2878427e-04  -3.3002935e-04  -1.2710795e-04   2.7676629e-05   1.7413431e-05  -1.2765709e-04  -6.6500924e-05  -4.1953078e-05   4.7010126e-06  -4.1286311e-05  -4.7494632e-05  -1.4432791e-04  -5.4092269e-05  -4.4126950e-05  -2.7312245e-04   0.0000000e+00  -8.8681313e-06  -6.6832366e-05  -1.2700076e-04  -3.8398402e-04  -4.0370889e-04   0.0000000e+00   0.0000000e+00   2.8068120e-05   6.5442355e-05   9.1101332e-06   1.4023014e-05   9.7292041e-05   4.0213357e-05   2.6744129e-05   1.5588752e-04   7.1139147e-05  -4.1515819e-05   9.3205097e-06   4.4868489e-05   8.2719967e-05   1.2343904e-05   2.2379881e-05   8.6255672e-06  -2.6630485e-05   2.5649974e-05   1.2469501e-04   2.3793022e-04   3.4230200e-05   5.2463178e-05   4.8656184e-05   9.0356031e-05   7.7586279e-05   3.1079596e-05   2.2323900e-04   2.4178774e-04   9.3400535e-05   7.5101286e-05   0.0000000e+00   1.7913366e-04   4.4963198e-05   2.2354981e-04   1.6023641e-04   9.6263981e-05   0.0000000e+00   0.0000000e+00   2.1675072e-05   7.5907842e-04   7.1778188e-04   6.4586583e-04   7.1279996e-04   1.0713325e-03   8.2101938e-04   5.3435384e-04   2.4453618e-04   3.2789796e-04   1.0033206e-03   6.0724091e-04   9.2093279e-04   5.9471633e-04   1.1407069e-04   1.9016431e-04   4.6121491e-04   6.4345040e-04   1.7103586e-03   1.2249627e-04   7.6623205e-04   6.6205657e-04   8.6266887e-04   8.4371805e-04   1.0078157e-03   9.3209909e-04   1.4270456e-03   1.1338183e-03   7.9087920e-04   2.8867635e-04   0.0000000e+00   7.6124995e-04   8.4204160e-05   1.0314080e-03   9.2280842e-04   2.8899253e-04   0.0000000e+00   0.0000000e+00   3.2190519e-04   8.8361817e-05   4.4371661e-05  -3.4494986e-06   1.5594492e-05   1.3607970e-05  -1.0112578e-04   2.8805377e-04   1.8430424e-04   4.6606834e-04  -1.3035928e-04  -3.0352902e-05  -1.5714935e-04   5.6261637e-05   2.7009573e-04   2.4354074e-04   4.5761280e-04   2.2873656e-04  -3.2595225e-04  -1.4759966e-04  -3.0844038e-04  -3.3381753e-04   7.5146368e-05  -1.3208325e-04   5.2513027e-05   1.2771370e-04  -3.4278322e-04  -6.4688556e-05  -6.5620888e-06   5.5562182e-04   0.0000000e+00   2.7494736e-04  -3.2843643e-05   2.3388353e-05   3.7553833e-04   8.0712106e-04   0.0000000e+00   0.0000000e+00   2.3611231e-05   4.0707723e-04  -7.9035542e-04   3.9045967e-04   4.8292553e-04   2.1389753e-04   1.0295873e-04   5.7680279e-04   2.4022312e-04   1.1548765e-04   2.4100493e-04  -7.1588186e-04  -5.1707018e-04   1.8621949e-04   1.3839080e-04   1.6552212e-04   9.5793948e-05  -1.0681695e-04  -4.7222411e-04  -6.7423780e-04  -1.9416657e-03  -1.6801551e-03   6.8533415e-04   3.2833555e-05   1.4414721e-03   1.2381004e-03  -1.0365671e-03  -1.5224637e-03  -7.5121290e-04   5.3406355e-04   0.0000000e+00   5.1811512e-04  -2.2870567e-04  -9.1082240e-04   6.2533907e-05   7.0002376e-05   0.0000000e+00   0.0000000e+00   1.4179367e-04   4.2367275e-04   5.3573503e-04   4.0531897e-04   2.7397373e-04   4.2145190e-04   1.0222705e-04   1.4637770e-03   1.6816630e-03   2.7202793e-03   1.3289674e-04   5.5604692e-04   2.6597240e-04   4.1796420e-04   2.1160025e-03   2.5221910e-03   2.8421222e-03   2.1483363e-03   6.3968706e-04   6.5959377e-04   7.1373389e-04   6.3899918e-04   3.4957122e-04   2.0813834e-04  -2.3058894e-04   4.7426728e-04   8.4432846e-04   7.5659594e-04   9.2332884e-04   2.2251869e-03   0.0000000e+00   9.5443970e-04   3.8279612e-04   1.7879733e-04   2.0782314e-03   2.8586824e-03   0.0000000e+00   0.0000000e+00   6.2925626e-05
   5.4849690e-05   5.0524649e-05   2.1317781e-05   4.0985901e-05   3.7190625e-05   1.1894592e-05  -2.7814759e-06   1.3749877e-05  -4.1907285e-05   2.2184001e-05   2.0222720e-06  -1.9312853e-06   3.3963145e-05  -5.4428253e-06  -1.6572291e-05  -3.7334712e-05  -8.4627908e-06  -3.7923722e-05  -5.7771654e-05   1.4228428e-05  -6.2826250e-06   5.6911142e-05  -1.8518829e-05   5.3324753e-05   1.6378486e-05   1.7459196e-05   2.1780042e-05  -4.2630482e-06  -6.6830747e-05   0.0000000e+00  -3.4683285e-06  -8.6796241e-06   2.4723463e-05  -9.4938594e-05  -9.9487208e-05   0.0000000e+00   0.0000000e+00   2.3447345e-05   2.1309730e-04   2.0399525e-04   5.5685651e-05   2.6843057e-04  -4.0672081e-05  -8.3296517e-05  -1.0225978e-04  -2.4816611e-04  -4.0826900e-04   3.9720042e-05   7.9259692e-05  -1.5922736e-05  -7.4910950e-05  -2.7415914e-04  -4.4774978e-04  -6.7559607e-04  -3.5578740e-04  -4.0055406e-05   1.0438925e-05   2.9382871e-04   4.2341236e-04  -1.6826737e-05  -2.8891064e-05   2.1064143e-04  -1.4195870e-04  -9.7582555e-05  -1.2355355e-04  -1.1007661e-04  -3.7464813e-04   0.0000000e+00  -7.8459362e-05   4.9897187e-05   2.2699768e-04  -2.7739348e-04  -5.1372637e-04   0.0000000e+00   0.0000000e+00   8.7538656e-05   1.4553473e-04  -2.5998823e-04  -3.4795157e-04  -5.9663449e-04  -4.4545767e-04  -6.2700759e-04  -2.5897542e-04  -1.6404700e-04  -1.2773931e-04  -5.9233644e-04  -5.9040215e-04  -1.0465721e-03   2.5664170e-05  -3.5851214e-05  -1.0350064e-04  -2.7217020e-04  -4.7209266e-04  -1.1069769e-03  -1.9116107e-03  -1.5225065e-03  -1.6223023e-03  -1.5494447e-04  -7.9833309e-04  -4.7866783e-04  -2.1796096e-05  -1.8141238e-03  -1.4416087e-03  -9.7281966e-04   3.9754073e-04   0.0000000e+00   2.1558244e-04  -4.3834214e-04  -1.0897903e-03  -1.7810752e-04   5.8181282e-04   0.0000000e+00   0.0000000e+00  -1.7750305e-05  -1.2336269e-04  -1.4181626e-04   6.7592411e-05  -3.9073992e-06  -1.0681292e-04  -1.0096324e-04  -1.3606662e-04   2.1849944e-05  -2.7606942e-04  -6.6269206e-05  -1.7552753e-04  -1.3988243e-04  -9.1596441e-05  -1.6252582e-04  -1.3966474e-04  -2.1771701e-04  -2.4979707e-04  -9.0987203e-05  -1.4833597e-04  -2.4712864e-04  -2.3074787e-04  -1.4872994e-04  -1.0237503e-04   5.9918202e-06  -1.7203625e-05  -1.8140214e-04  -1.5929923e-04  -2.2013155e-04  -2.8430787e-04   0.0000000e+00  -2.1318607e-04  -4.7341054e-05  -1.2345374e-04  -4.3426297e-04  -3.8298192e-04   0.0000000e+00   0.0000000e+00  -1.0405808e-04   1.8510614e-04   1.5201378e-04   8.7734300e-05   1.3884753e-04   2.3480112e-04   1.6121542e-04   1.4456856e-04   3.7756639e-05   4.9644924e-05   1.6152484e-04   4.3701251e-05   1.9721092e-04   5.9320090e-05   1.1916960e-04   1.4643359e-05   1.1582476e-04   1.4634377e-04   2.1140937e-04   1.5179839e-04   5.9832286e-05   9.7548894e-05   2.6310237e-04   2.2797438e-04   1.9593715e-04   1.1296023e-04   1.2626713e-04  -1.4736658e-04   3.2322131e-05   1.0307815e-04   0.0000000e+00   1.8427614e-04   5.1883794e-05   1.5244807e-05   1.0792407e-04   9.6707043e-05   0.0000000e+00   0.0000000e+00   6.7943904e-05   6.9980277e-05   3.4400614e-05   7.1646254e-05   1.1138073e-04   4.2984299e-05   3.1455079e-05   1.0317032e-04   1.8439429e-04   4.3397924e-05   8.7958885e-05   2.7707025e-05   3.2175000e-05   3.5511653e-05   6.5764697e-05   1.7120935e-04   1.1683965e-04   7.1413886e-05   6.3810374e-05  -1.3952402e-04   3.1074629e-05   6.8776178e-06   9.4612846e-05   6.3389283e-05   1.3366895e-04   3.6086084e-05   5.0768645e-05   6.5593414e-06   1.9893385e-06   6.4652547e-05   0.0000000e+00   1.3744164e-04   1.7253689e-05  -9.6517574e-05   1.9021261e-05   1.2397546e-05   0.0000000e+00   0.0000000e+00   7.1531343e-05   1.1686338e-04   1.5757507e-05   9.3771363e-05   3.0104897e-05   6.4988523e-05   1.1199482e-04  -1.7838514e-04  -2.2059226e-04  -3.4985135e-04   8.6004153e-05   2.0276558e-05   1.9210171e-04  -4.1786886e-08  -1.8961863e-04  -3.7029476e-04  -3.7593675e-04  -1.4352772e-04   1.5990655e-05   2.3516901e-05  -1.1572529e-04  -5.2309415e-05  -4.1517215e-05   1.3912334e-05  -4.4578689e-05  -4.9531960e-05  -1.2724249e-04  -3.3096336e-05  -3.3217795e-05  -2.8109885e-04   0.0000000e+00   9.7191832e-06  -6.2817723e-05  -9.2091403e-05  -3.8869267e-04  -4.1018347e-04   0.0000000e+00   0.0000000e+00   2.9924061e-05   4.7142356e-05   2.1493501e-06   5.5931150e-06   8.9583995e-05   2.5438995e-05   1.8155608e-05   1.3465964e-04   5.0375822e-05  -6.1046972e-05  -5.4862678e-07   3.8271832e-05   7.4862608e-05   3.0898963e-06   6.7516753e-06  -1.1973904e-05  -4.7496645e-05   1.2307361e-05   1.1605952e-04   2.3687216e-04   2.2537906e-05   5.5788100e-05   4.2251247e-05   9.3494524e-05   7.9658736e-05   1.6077442e-05   2.1610989e-04   2.2902396e-04   7.7197434e-05   5.1464024e-05   0.0000000e+00   1.6127062e-04   4.6435492e-05   2.1378374e-04   1.4552460e-04   7.1310090e-05   0.0000000e+00   0.0000000e+00   1.1505960e-05   7.2860367e-04   6.5847590e-04   5.6956539e-04   6.4593268e-04   9.9613938e-04   8.0041978e-04   4.6207460e-04   2.1936130e-04   2.8937965e-04   9.3776426e-04   5.5619351e-04   9.1256987e-04   5.4254638e-04   4.2906803e-05   1.9475954e-04   4.3468744e-04   6.1149645e-04   1.6691464e-03   1.3045305e-04   7.2661558e-04   6.3147415e-04   7.7328813e-04   8.3519254e-04   9.5140972e-04   8.7531103e-04   1.4067000e-03   1.0771155e-03   7.1789384e-04   2.7086405e-04   0.0000000e+00   6.7618172e-04   4.5948678e-05   1.0184372e-03   8.9766878e-04   2.6985074e-04   0.0000000e+00   0.0000000e+00   2.6811601e-04   8.3070216e-05   4.6285866e-05   1.4719851e-05   1.9565664e-05   1.6942969e-05  -9.7354871e-05   3.1387348e-04   2.1219282e-04   4.9553305e-04  -1.1857643e-04  -2.5482656e-05  -1.5467251e-04   6.6783893e-05   3.0703714e-04   2.7401700e-04   4.7820600e-04   2.4232602e-04  -3.1563814e-04  -1.2914386e-04  -3.0657149e-04  -3.3602175e-04   8.0781169e-05  -1.3134076e-04   5.4212902e-05   1.4718948e-04  -3.2792798e-04  -4.7821025e-05   5.4382874e-06   5.7055309e-04   0.0000000e+00   2.9840597e-04  -4.4754044e-05   2.9711574e-05   3.9142135e-04   8.2411233e-04   0.0000000e+00   0.0000000e+00   3.0398705e-05   4.1108375e-04  -8.0226692e-04   4.4550328e-04   5.5720638e-04   2.1091692e-04   8.8266037e-05   5.8592859e-04   2.7120986e-04   9.9906911e-05   2.4073287e-04  -7.0884734e-04  -5.1445485e-04   1.9093315e-04   1.4052295e-04   1.5596506e-04   8.7520719e-05  -9.8327243e-05  -5.4317935e-04  -6.9387689e-04  -1.9215867e-03  -1.6575393e-03   6.9315441e-04   1.8012827e-05   1.4772070e-03   1.2603348e-03  -1.0471456e-03  -1.5098638e-03  -7.5511240e-04   5.2216923e-04   0.0000000e+00   5.2314574e-04  -2.4214992e-04  -8.6979752e-04   4.8057021e-05   4.8092663e-05   0.0000000e+00   0.0000000e+00   1.5164830e-04   4.2656151e-04   5.2995697e-04   3.7398144e-04   2.5401835e-04   3.9576757e-04   7.1745128e-05   1.4806842e-03   1.6900552e-03   2.7351454e-03   9.6751346e-05   5.3644913e-04   2.4646349e-04   4.2744923e-04   2.1461094e-03   2.5528072e-03   2.9052868e-03   2.1655085e-03   6.1181541e-04   6.4741260e-04   7.2014961e-04   6.5726071e-04   2.9993248e-04   1.8365028e-04  -2.6185628e-04   4.8200052e-04   8.2780605e-04   7.5574970e-04   9.2068963e-04   2.2238392e-03   0.0000000e+00   9.6921554e-04   3.5064535e-04   2.1926245e-04   2.0821036e-03   2.8682177e-03   0.0000000e+00   0.0000000e+00   5.3037440e-05
   4.8960960e-05   4.3640518e-05   1.8203916e-05   3.5534474e-05   3.2777612e-05   8.9170553e-06  -6.4617629e-06   1.3268114e-05  -4.9923531e-05   1.9809043e-05  -1.8831230e-06  -6.9380308e-06   3.1271118e-05  -9.5626565e-06  -1.9412316e-05  -4.4919505e-05  -1.5534938e-05  -4.1256106e-05  -6.8096830e-05   6.5175854e-06  -1.3201149e-05   5.1854903e-05  -2.1380090e-05   5.1060686e-05   1.1105475e-05   9.3574169e-06   1.7598391e-05  -1.1193548e-05  -7.3243831e-05   0.0000000e+00  -6.3113599e-06  -1.0009238e-05   2.0715103e-05  -1.0694568e-04  -1.0799882e-04   0.0000000e+00   0.0000000e+00   2.1372667e-05   2.3769899e-04   2.2675789e-04   7.1051485e-05   3.0143847e-04  -1.7208448e-05  -7.4469365e-05  -8.1009434e-05  -2.4729321e-04  -4.0608851e-04   5.5174451e-05   9.5482417e-05  -8.9351025e-06  -6.2804678e-05  -2.6693499e-04  -4.5164356e-04  -6.7808635e-04  -3.4966415e-04  -3.1325980e-05   2.6477926e-05   2.9894900e-04   4.1334592e-04   2.7659886e-07  -2.3139218e-05   2.3508527e-04  -1.2217388e-04  -8.3989337e-05  -1.0910251e-04  -8.8169057e-05  -3.6366423e-04   0.0000000e+00  -4.3033798e-05   5.0213846e-05   2.3152311e-04  -2.6264967e-04  -5.1139632e-04   0.0000000e+00   0.0000000e+00   1.0361433e-04   1.0917305e-04  -3.0105610e-04  -3.6964898e-04  -6.2288797e-04  -4.8436040e-04  -6.5625886e-04  -2.6471010e-04  -1.4966488e-04  -1.4650028e-04  -6.1481746e-04  -5.8694654e-04  -1.0762953e-03   3.9917567e-05  -7.6504172e-06  -9.3406498e-05  -2.8219109e-04  -4.9649075e-04  -1.1539879e-03  -1.8350909e-03  -1.5636715e-03  -1.6725103e-03  -1.9713253e-04  -8.3891571e-04  -5.5065760e-04  -5.6262623e-05  -1.8326785e-03  -1.4426665e-03  -9.9178412e-04   3.7445999e-04   0.0000000e+00   1.8759387e-04  -4.3521159e-04  -1.1002777e-03  -1.5925545e-04   5.8041583e-04   0.0000000e+00   0.0000000e+00  -1.5341526e-05  -1.2003386e-04  -1.3997184e-04   5.1632027e-05   6.3061562e-06  -1.0559221e-04  -9.9103405e-05  -1.3016239e-04   6.6779564e-06  -2.5505933e-04  -6.9806961e-05  -1.7188065e-04  -1.3931112e-04  -8.6995425e-05  -1.4964100e-04  -1.3430797e-04  -1.9856975e-04  -2.3694834e-04  -9.1292447e-05  -1.5806452e-04  -2.5449569e-04  -2.4066143e-04  -1.5527950e-04  -1.0213906e-04   1.1895240e-05  -1.5096189e-05  -1.7209758e-04  -1.4789441e-04  -2.0681918e-04  -2.5974619e-04   0.0000000e+00  -2.0732916e-04  -5.4222729e-05  -1.2730045e-04  -4.0633163e-04  -3.4879120e-04   0.0000000e+00   0.0000000e+00  -1.0373926e-04   1.9576389e-04   1.4916175e-04   7.2706204e-05   1.3017598e-04   2.3388937e-04   1.6190636e-04   1.4629231e-04   3.7050727e-05   5.0419286e-05   1.5359841e-04   3.9198775e-05   1.9629738e-04   5.1108430e-05   1.1502125e-04   1.8025756e-05   1.2480787e-04   1.4847372e-04   2.1226075e-04   1.3017387e-04   4.6171370e-05   8.5224002e-05   2.5412065e-04   2.2356210e-04   1.8897864e-04   1.0821590e-04   1.0667231e-04  -1.6436626e-04   2.7015824e-05   1.1133164e-04   0.0000000e+00   1.9215598e-04   5.8550852e-05  -1.4416552e-06   1.1684267e-04   1.1333402e-04   0.0000000e+00   0.0000000e+00   6.6227056e-05   7.5333451e-05   3.9752842e-05   6.8629567e-05   1.0735920e-04   4.7345940e-05   3.5337864e-05   1.1065416e-04   1.8326855e-04   5.2855564e-05   9.4839997e-05   3.0985800e-05   3.5119915e-05   4.0982588e-05   7.5360745e-05   1.7605021e-04   1.2845012e-04   7.5038830e-05   7.5500581e-05  -1.3025888e-04   3.3422333e-05   5.8699144e-06   1.0013318e-04   6.8610526e-05   1.1857286e-04   2.9278936e-05   5.5459823e-05   4.0853156e-06   6.5648855e-06   6.7962893e-05   0.0000000e+00   1.4270884e-04   2.0200720e-05  -1.0704929e-04   3.4304314e-05   2.5408245e-05   0.0000000e+00   0.0000000e+00   7.6441694e-05   1.2437605e-04   2.1590391e-05   9.3130653e-05   2.7556474e-05   6.7415652e-05   1.2085737e-04  -1.9706126e-04  -2.5905959e-04  -3.8008447e-04   8.9526848e-05   2.9294783e-05   2.1503620e-04  -2.8466476e-06  -2.0198643e-04  -4.1034277e-04  -4.1909581e-04  -1.5782444e-04   5.3687842e-06   3.3473680e-05  -1.0055332e-04  -3.4662787e-05  -4.0857757e-05   2.5723370e-05  -4.7757479e-05  -5.1970314e-05  -1.0619414e-04  -6.8375581e-06  -2.1283578e-05  -2.9014356e-04   0.0000000e+00   2.6322720e-05  -5.4475338e-05  -5.0993865e-05  -3.9135100e-04  -4.1718234e-04   0.0000000e+00   0.0000000e+00   3.2913526e-05   3.1368211e-05  -2.9002375e-06  -4.0590251e-06   8.1013444e-05   1.0756827e-05   9.3917089e-06   1.1180128e-04   2.5998351e-05  -7.8135531e-05  -1.2123396e-05   3.1786969e-05   6.4484933e-05  -6.8876633e-06  -9.1171841e-06  -3.3594716e-05  -6.8723178e-05  -8.0695425e-07   1.0334647e-04   2.3070507e-04   6.2732536e-06   5.6270295e-05   3.6313187e-05   9.5016366e-05   8.1460609e-05   1.3582445e-06   2.0475180e-04   2.1428976e-04   6.1449174e-05   3.1399569e-05   0.0000000e+00   1.4447454e-04   4.7408443e-05   2.0273831e-04   1.3412755e-04   5.0761637e-05   0.0000000e+00   0.0000000e+00   1.2077624e-06   6.9753945e-04   6.0246080e-04   4.9090252e-04   5.8289649e-04   9.1682815e-04   7.7409158e-04   3.9613211e-04   1.9871502e-04   2.5599724e-04   8.6248953e-04   4.9922265e-04   8.9883734e-04   4.8999484e-04  -2.3172570e-05   2.0381045e-04   4.1144471e-04   5.7894476e-04   1.6214031e-03   1.4664810e-04   6.8790690e-04   6.0253337e-04   6.8163606e-04   8.2055699e-04   8.9774095e-04   8.2113905e-04   1.3821261e-03   1.0157043e-03   6.4975338e-04   2.5724703e-04   0.0000000e+00   5.9140512e-04   1.2266797e-05   9.9994651e-04   8.7026121e-04   2.5552853e-04   0.0000000e+00   0.0000000e+00   2.1647147e-04   7.7384399e-05   4.7246608e-05   3.2726568e-05   2.2458517e-05   2.0024002e-05  -9.2103918e-05   3.3693100e-04   2.3692190e-04   5.2559981e-04  -1.0604544e-04  -1.9861897e-05  -1.5076740e-04   7.7190518e-05   3.4315506e-04   3.0396636e-04   4.9931560e-04   2.5768831e-04  -3.0440788e-04  -1.0611171e-04  -3.0223782e-04  -3.3351974e-04   8.5929341e-05  -1.2944993e-04   5.6775922e-05   1.6625723e-04  -3.1033306e-04  -2.8066696e-05   1.8832769e-05   5.8383671e-04   0.0000000e+00   3.1844299e-04  -5.7576715e-05   4.0994291e-05   4.0772070e-04   8.3684572e-04   0.0000000e+00   0.0000000e+00   3.5515826e-05   4.1151883e-04  -8.1061803e-04   4.9397571e-04   6.3928158e-04   2.0049510e-04   6.6157902e-05   5.8484248e-04   2.9886315e-04   8.1761430e-05   2.3180258e-04  -6.9909587e-04  -5.1164097e-04   1.9087785e-04   1.3581596e-04   1.4165564e-04   7.3567411e-05  -9.2515848e-05  -6.1823624e-04  -7.0284995e-04  -1.8844371e-03  -1.6217045e-03   6.8837760e-04  -1.9608042e-06   1.4895614e-03   1.2649602e-03  -1.0616442e-03  -1.4829572e-03  -7.5707167e-04   5.0094258e-04   0.0000000e+00   5.1543837e-04  -2.6094164e-04  -8.1674438e-04   2.8477652e-05   2.4924094e-05   0.0000000e+00   0.0000000e+00   1.5680582e-04   4.2741232e-04   5.2012757e-04   3.4314211e-04   2.3664843e-04   3.6822452e-04   4.0007445e-05   1.4897623e-03   1.6823570e-03   2.7477951e-03   5.5434981e-05   5.1162747e-04   2.2249565e-04   4.3683259e-04   2.1648527e-03   2.5628626e-03   2.9505046e-03   2.1737278e-03   5.6851734e-04   6.2880547e-04   7.1442514e-04   6.6671444e-04   2.4867680e-04   1.5521676e-04  -2.8873328e-04   4.8833217e-04   7.9446099e-04   7.4287081e-04   9.0995127e-04   2.2168809e-03   0.0000000e+00   9.8393072e-04   3.1106726e-04   2.5442226e-04   2.0858573e-03   2.8695824e-03   0.0000000e+00   0.0000000e+00   4.4279923e-05
   4.2940013e-05   3.6191567e-05   1.4732540e-05   2.9503538e-05   2.8260207e-05   6.2540045e-06  -1.0284394e-05   1.1494557e-05  -5.7120838e-05   1.7269845e-05  -5.4065324e-06  -1.1638349e-05   2.8374851e-05  -1.3696034e-05  -2.2617799e-05  -5.1833336e-05  -2.2066950e-05  -4.3871739e-05  -7.6505178e-05  -1.5162453e-06  -2.0150673e-05   4.7082276e-05  -2.3648975e-05   4.8476687e-05   5.9194913e-06   8.4777133e-07   1.2373657e-05  -1.7914132e-05  -7.8147777e-05   0.0000000e+00  -8.4922929e-06  -1.1745568e-05   1.7548078e-05  -1.1663434e-04  -1.1472298e-04   0.0000000e+00   0.0000000e+00   1.9128746e-05   2.6104409e-04   2.5183819e-04   8.4692360e-05   3.2928212e-04   7.8333742e-06  -6.3780548e-05  -6.0413872e-05  -2.4660541e-04  -4.0280716e-04   6.9757330e-05   1.1194131e-04  -6.7804716e-07  -4.9819405e-05  -2.5912774e-04  -4.5608506e-04  -6.7851596e-04  -3.4195198e-04  -2.3606945e-05   4.4668741e-05   3.0499554e-04   4.0151398e-04   1.7757488e-05  -1.7127352e-05   2.5795679e-04  -1.0173491e-04  -6.9624360e-05  -9.4583475e-05  -6.3354759e-05  -3.5252861e-04   0.0000000e+00  -1.0479238e-05   5.2529878e-05   2.3420348e-04  -2.4603786e-04  -5.0660922e-04   0.0000000e+00   0.0000000e+00   1.1909543e-04   7.4770324e-05  -3.3504109e-04  -3.9216561e-04  -6.4380437e-04  -5.2044225e-04  -6.8330595e-04  -2.7073884e-04  -1.3943002e-04  -1.6426907e-04  -6.3580624e-04  -5.7889599e-04  -1.1001130e-03   5.3016736e-05   1.8902288e-05  -8.6232287e-05  -2.9001862e-04  -5.1996771e-04  -1.1909231e-03  -1.7474659e-03  -1.5909208e-03  -1.7065215e-03  -2.3644077e-04  -8.7376415e-04  -6.1107698e-04  -8.6532342e-05  -1.8433237e-03  -1.4242869e-03  -1.0027629e-03   3.4851858e-04   0.0000000e+00   1.5858364e-04  -4.3091657e-04  -1.1056079e-03  -1.3697720e-04   5.7461201e-04   0.0000000e+00   0.0000000e+00  -1.3672553e-05  -1.1630128e-04  -1.3632840e-04   3.6016763e-05   1.4972854e-05  -1.0280494e-04  -9.6044337e-05  -1.2498298e-04  -9.8709441e-06  -2.3136013e-04  -7.3105572e-05  -1.6632813e-04  -1.3674296e-04  -8.1566630e-05  -1.3629047e-04  -1.2923519e-04  -1.7846475e-04  -2.2124559e-04  -9.2134083e-05  -1.6821257e-04  -2.5761259e-04  -2.4645477e-04  -1.5970832e-04  -1.0097410e-04   1.5454123e-05  -1.2986016e-05  -1.5960606e-04  -1.3403210e-04  -1.9112495e-04  -2.3294079e-04   0.0000000e+00  -2.0106852e-04  -6.0620813e-05  -1.2842884e-04  -3.7333531e-04  -3.1137001e-04   0.0000000e+00   0.0000000e+00  -1.0226533e-04   2.0333142e-04   1.4484987e-04   5.6819356e-05   1.1756473e-04   2.2985437e-04   1.6048660e-04   1.4644036e-04   3.7227008e-05   5.0219054e-05   1.4356339e-04   3.2921432e-05   1.9239751e-04   4.2062707e-05   1.1040603e-04   2.1961219e-05   1.3137941e-04   1.4876249e-04   2.1160222e-04   1.0931259e-04   3.1181936e-05   7.0630154e-05   2.4138537e-04   2.1637582e-04   1.7941656e-04   1.0247334e-04   8.4915386e-05  -1.7961261e-04   2.1175477e-05   1.1721027e-04   0.0000000e+00   1.9644492e-04   6.5237458e-05  -2.1815087e-05   1.2293920e-04   1.2698076e-04   0.0000000e+00   0.0000000e+00   6.3426957e-05   7.9261129e-05   4.5242028e-05   6.6600001e-05   9.9626259e-05   5.1879095e-05   3.9128319e-05   1.1665275e-04   1.8061812e-04   6.3759627e-05   1.0105074e-04   3.4344863e-05   3.8277274e-05   4.6462554e-05   8.4399452e-05   1.7919124e-04   1.3905146e-04   7.8903786e-05   8.5673310e-05  -1.1811234e-04   3.5779174e-05   5.2259189e-06   1.0602225e-04   7.3492502e-05   1.0032810e-04   2.2905416e-05   6.0227105e-05   2.0940702e-06   1.1413571e-05   7.0897410e-05   0.0000000e+00   1.4575999e-04   2.3529059e-05  -1.1692442e-04   4.9892827e-05   3.8570924e-05   0.0000000e+00   0.0000000e+00   8.0569564e-05   1.3022776e-04   2.7175325e-05   9.3088798e-05   2.6068386e-05   6.9784734e-05   1.3014370e-04  -2.1385745e-04  -2.9526637e-04  -4.1065963e-04   9.4051163e-05   4.0040339e-05   2.3850616e-04  -4.2686894e-06  -2.1160906e-04  -4.4877737e-04  -4.5954155e-04  -1.7017647e-04  -3.1597459e-06   4.8076061e-05  -8.2439644e-05  -1.3413242e-05  -3.9910383e-05   4.0155990e-05  -5.0603704e-05  -5.4976829e-05  -8.1380655e-05   2.4427024e-05  -8.6665120e-06  -3.0101094e-04   0.0000000e+00   4.0035790e-05  -4.2131885e-05  -5.2099542e-06  -3.9291430e-04  -4.2589639e-04   0.0000000e+00   0.0000000e+00   3.7073241e-05   1.8723576e-05  -6.0089871e-06  -1.4804246e-05   7.1850381e-05  -3.5032918e-06   5.3397470e-07   8.7700599e-05  -1.5850656e-06  -9.2179477e-05  -2.5288649e-05   2.5650291e-05   5.1609572e-05  -1.7385109e-05  -2.5039334e-05  -5.5796454e-05  -8.9799756e-05  -1.3274390e-05   8.6890190e-05   2.1802691e-04  -1.4517343e-05   5.3584074e-05   3.1030827e-05   9.4649929e-05   8.2943323e-05  -1.2490755e-05   1.8885122e-04   1.9793345e-04   4.6704361e-05   1.5847738e-05   0.0000000e+00   1.2926210e-04   4.7742509e-05   1.9059908e-04   1.2625265e-04   3.5414459e-05   0.0000000e+00   0.0000000e+00  -8.9951726e-06   6.6680165e-04   5.5200852e-04   4.1162144e-04   5.2498435e-04   8.3582003e-04   7.4276490e-04   3.3772092e-04   1.8326285e-04   2.2894351e-04   7.7950430e-04   4.3767885e-04   8.8032757e-04   4.3837958e-04  -8.2917176e-05   2.1759109e-04   3.9284594e-04   5.4722779e-04   1.5709458e-03   1.7086247e-04   6.5256469e-04   5.7615082e-04   5.9034257e-04   8.0048737e-04   8.4832506e-04   7.7126906e-04   1.3557074e-03   9.5282765e-04   5.8908160e-04   2.4799063e-04   0.0000000e+00   5.0828790e-04  -1.6011191e-05   9.7659339e-04   8.4094202e-04   2.4657669e-04   0.0000000e+00   0.0000000e+00   1.6722729e-04   7.1666167e-05   4.7341961e-05   5.0007876e-05   2.4173287e-05   2.2772403e-05  -8.5685045e-05   3.5686156e-04   2.5814299e-04   5.5507412e-04  -9.3303302e-05  -1.3793961e-05  -1.4574100e-04   8.7121468e-05   3.7727700e-04   3.3275226e-04   5.2136123e-04   2.7482078e-04  -2.9317018e-04  -7.9166537e-05  -2.9580949e-04  -3.2693516e-04   9.0660420e-05  -1.2658343e-04   6.0359562e-05   1.8420354e-04  -2.9086265e-04  -5.7771148e-06   3.3273886e-05   5.9546757e-04   0.0000000e+00   3.3483968e-04  -7.0462748e-05   5.7351025e-05   4.2392228e-04   8.4549821e-04   0.0000000e+00   0.0000000e+00   3.8898164e-05   4.0932312e-04  -8.1715266e-04   5.3327443e-04   7.2721153e-04   1.8291889e-04   3.7712269e-05   5.7461909e-04   3.2243312e-04   6.1952955e-05   2.1484389e-04  -6.8819282e-04  -5.0983880e-04   1.8621689e-04   1.2457088e-04   1.2382465e-04   5.5165408e-05  -8.9692369e-05  -6.9491661e-04  -6.9985994e-04  -1.8350165e-03  -1.5770829e-03   6.7183193e-04  -2.6101708e-05   1.4807341e-03   1.2533512e-03  -1.0814779e-03  -1.4456005e-03  -7.5885120e-04   4.7218229e-04   0.0000000e+00   4.9583804e-04  -2.8396735e-04  -7.5543419e-04   4.6693798e-06   1.3662308e-06   0.0000000e+00   0.0000000e+00   1.5757476e-04   4.2616522e-04   5.0662786e-04   3.1448837e-04   2.2219614e-04   3.3946165e-04   7.5143568e-06   1.4914351e-03   1.6620414e-03   2.7582487e-03   9.7514057e-06   4.8205787e-04   1.9443428e-04   4.4562793e-04   2.1731176e-03   2.5546021e-03   2.9770669e-03   2.1727570e-03   5.1072995e-04   6.0386601e-04   6.9701272e-04   6.6720899e-04   1.9654920e-04   1.2306399e-04  -3.1170197e-04   4.9281195e-04   7.4547599e-04   7.1818684e-04   8.9153574e-04   2.2058193e-03   0.0000000e+00   9.9735417e-04   2.6610746e-04   2.8164542e-04   2.0872485e-03   2.8628451e-03   0.0000000e+00   0.0000000e+00   3.6515254e-05
   3.7032688e-05   2.8509329e-05   1.1060579e-05   2.3195206e-05   2.3862201e-05   4.0444971e-06  -1.4014568e-05   8.4971650e-06  -6.3223468e-05   1.4685238e-05  -8.3470512e-06  -1.5741853e-05   2.5437281e-05  -1.7620079e-05  -2.6121237e-05  -5.7746190e-05  -2.7779651e-05  -4.5655703e-05  -8.2531304e-05  -9.4200746e-06  -2.6764923e-05   4.2826245e-05  -2.5182424e-05   4.5726206e-05   1.0752228e-06  -7.6206806e-06   6.3360547e-06  -2.4043380e-05  -8.1327296e-05   0.0000000e+00  -9.8209228e-06  -1.3636057e-05   1.5431368e-05  -1.2349089e-04  -1.1934677e-04   0.0000000e+00   0.0000000e+00   1.6880036e-05   2.8242057e-04   2.7862153e-04   9.6192540e-05   3.5098754e-04   3.3158110e-05  -5.1871574e-05  -4.1463572e-05  -2.4658768e-04  -3.9927114e-04   8.3163417e-05   1.2832030e-04   8.4383942e-06  -3.6456410e-05  -2.5130222e-04  -4.6190173e-04  -6.7767933e-04  -3.3370421e-04  -1.7270080e-05   6.3826918e-05   3.1245800e-04   3.8916199e-04   3.4600281e-05  -1.1169872e-05   2.7856709e-04  -8.2001940e-05  -5.5390420e-05  -8.0643060e-05  -3.6792477e-05  -3.4291419e-04   0.0000000e+00   1.7730151e-05   5.6385289e-05   2.3549147e-04  -2.2871347e-04  -5.0074912e-04   0.0000000e+00   0.0000000e+00   1.3368389e-04   4.3698885e-05  -3.6079839e-04  -4.1527788e-04  -6.5888318e-04  -5.5294941e-04  -7.0767168e-04  -2.7703569e-04  -1.3411496e-04  -1.8002257e-04  -6.5535889e-04  -5.6725282e-04  -1.1182036e-03   6.4577010e-05   4.2519464e-05  -8.2343579e-05  -2.9603459e-04  -5.4244844e-04  -1.2187445e-03  -1.6553658e-03  -1.6053675e-03  -1.7255751e-03  -2.7167695e-04  -9.0264132e-04  -6.5832201e-04  -1.1136223e-04  -1.8479317e-03  -1.3879515e-03  -1.0061224e-03   3.2143520e-04   0.0000000e+00   1.2991625e-04  -4.2627740e-04  -1.1045443e-03  -1.1260655e-04   5.6530309e-04   0.0000000e+00   0.0000000e+00  -1.2612897e-05  -1.1235975e-04  -1.3111334e-04   2.1516068e-05   2.2052309e-05  -9.8623293e-05  -9.2036417e-05  -1.2085376e-04  -2.6907018e-05  -2.0608851e-04  -7.6121105e-05  -1.5932311e-04  -1.3239426e-04  -7.5690278e-05  -1.2313598e-04  -1.2475162e-04  -1.5835686e-04  -2.0350736e-04  -9.3633976e-05  -1.7843104e-04  -2.5645739e-04  -2.4775552e-04  -1.6200408e-04  -9.8978298e-05   1.7031731e-05  -1.0792531e-05  -1.4448954e-04  -1.1830257e-04  -1.7382060e-04  -2.0513708e-04   0.0000000e+00  -1.9498692e-04  -6.6218471e-05  -1.2653488e-04  -3.3693686e-04  -2.7253763e-04   0.0000000e+00   0.0000000e+00  -9.9890062e-05   2.0756164e-04   1.3915643e-04   4.0646464e-05   1.0129836e-04   2.2275012e-04   1.5678613e-04   1.4484427e-04   3.8192922e-05   4.8948442e-05   1.3152354e-04   2.4782966e-05   1.8537112e-04   3.2315083e-05   1.0520617e-04   2.6239229e-05   1.3519342e-04   1.4708820e-04   2.0933911e-04   8.9382726e-05   1.4973620e-05   5.3941847e-05   2.2524518e-04   2.0646356e-04   1.6777625e-04   9.5981340e-05   6.1170939e-05  -1.9304791e-04   1.4705292e-05   1.2045844e-04   0.0000000e+00   1.9686792e-04   7.1468112e-05  -4.5548146e-05   1.2562991e-04   1.3711954e-04   0.0000000e+00   0.0000000e+00   5.9494566e-05   8.1438628e-05   5.0589980e-05   6.5956248e-05   8.8418183e-05   5.6344692e-05   4.2677471e-05   1.2083965e-04   1.7689064e-04   7.5395250e-05   1.0639989e-04   3.7572435e-05   4.1554330e-05   5.1619189e-05   9.2249424e-05   1.8051709e-04   1.4805414e-04   8.2656252e-05   9.3891289e-05  -1.0359608e-04   3.8127819e-05   4.9803205e-06   1.1200596e-04   7.7852917e-05   7.9554129e-05   1.7142172e-05   6.4756992e-05   4.3927505e-07   1.6022332e-05   7.3001374e-05   0.0000000e+00   1.4623719e-04   2.7038184e-05  -1.2613832e-04   6.4596362e-05   5.0707614e-05   0.0000000e+00   0.0000000e+00   8.3764462e-05   1.3439897e-04   3.2394376e-05   9.4090698e-05   2.6021851e-05   7.2335895e-05   1.3997542e-04  -2.2855233e-04  -3.2869418e-04  -4.4159616e-04   9.9709935e-05   5.2414687e-05   2.6240940e-04  -4.3559147e-06  -2.1861067e-04  -4.8556803e-04  -4.9744923e-04  -1.8080999e-04  -8.5900877e-06   6.7924081e-05  -6.1745077e-05   1.1462143e-05  -3.8558413e-05   5.7120993e-05  -5.2883385e-05  -5.8687348e-05  -5.3090481e-05   6.0157834e-05   4.3209199e-06  -3.1424189e-04   0.0000000e+00   5.0197782e-05  -2.6385087e-05   4.3502576e-05  -3.9420546e-04  -4.3727444e-04   0.0000000e+00   0.0000000e+00   4.2362265e-05   9.6316507e-06  -7.2407609e-06  -2.6397225e-05   6.2410782e-05  -1.7029502e-05  -8.3658956e-06   6.2760673e-05  -3.1735744e-05  -1.0284052e-04  -3.9796577e-05   2.0032792e-05   3.6368849e-05  -2.8154926e-05  -4.0879871e-05  -7.8145470e-05  -1.1023051e-04  -2.4772418e-05   6.7236608e-05   1.9775931e-04  -3.9520882e-05   4.7565319e-05   2.6570239e-05   9.2193471e-05   8.4116942e-05  -2.4903412e-05   1.6823612e-04   1.8021918e-04   3.3404728e-05   5.3661088e-06   0.0000000e+00   1.1596898e-04   4.7297349e-05   1.7747718e-04   1.2172708e-04   2.5626574e-05   0.0000000e+00   0.0000000e+00  -1.8860399e-05   6.3699328e-04   5.0873560e-04   3.3322556e-04   4.7287771e-04   7.5520208e-04   7.0715778e-04   2.8744429e-04   1.7340460e-04   2.0902267e-04   6.9091896e-04   3.7292109e-04   8.5757707e-04   3.8878278e-04  -1.3546304e-04   2.3619041e-04   3.7997227e-04   5.1757362e-04   1.5210837e-03   2.0217213e-04   6.2246657e-04   5.5271224e-04   5.0166546e-04   7.7573489e-04   8.0408462e-04   7.2683705e-04   1.3294726e-03   8.9128797e-04   5.3763548e-04   2.4302844e-04   0.0000000e+00   4.2783725e-04  -3.8551765e-05   9.4882010e-04   8.0995620e-04   2.4323554e-04   0.0000000e+00   0.0000000e+00   1.2041797e-04   6.6280432e-05   4.6712434e-05   6.6064087e-05   2.4706836e-05   2.5147875e-05  -7.8429587e-05   3.7347034e-04   2.7570704e-04   5.8266640e-04  -8.0830193e-05  -7.5629664e-06  -1.3990405e-04   9.6275387e-05   4.0834277e-04   3.5975684e-04   5.4455117e-04   2.9359436e-04  -2.8263483e-04  -4.9111546e-05  -2.8769808e-04  -3.1707605e-04   9.5126392e-05  -1.2287965e-04   6.5078201e-05   2.0038024e-04  -2.7031861e-04   1.8599118e-05   4.8417711e-05   6.0534960e-04   0.0000000e+00   3.4762727e-04  -8.2477256e-05   7.8550444e-05   4.3943817e-04   8.5023283e-04   0.0000000e+00   0.0000000e+00   4.0626692e-05   4.0543068e-04  -8.2345521e-04   5.6116056e-04   8.1781423e-04   1.5887578e-04   4.4590400e-06   5.5679509e-04   3.4129706e-04   4.1435453e-05   1.9097343e-04  -6.7753628e-04  -5.1010062e-04   1.7735285e-04   1.0747383e-04   1.0388335e-04   3.3927994e-05  -8.9898075e-05  -7.7041771e-04  -6.8435941e-04  -1.7784977e-03  -1.5283124e-03   6.4490064e-04  -5.3075982e-05   1.4536195e-03   1.2274512e-03  -1.1072583e-03  -1.4018668e-03  -7.6183946e-04   4.3802385e-04   0.0000000e+00   4.6586030e-04  -3.0963707e-04  -6.8997659e-04  -2.2194795e-05  -2.1684992e-05   0.0000000e+00   0.0000000e+00   1.5457258e-04   4.2265105e-04   4.8982404e-04   2.8916794e-04   2.1042831e-04   3.0984503e-04  -2.5364939e-05   1.4861447e-03   1.6328938e-03   2.7657065e-03  -3.9468803e-05   4.4831562e-04   1.6268176e-04   4.5324734e-04   2.1718826e-03   2.5308336e-03   2.9846388e-03   2.1621632e-03   4.3997203e-04   5.7307319e-04   6.6893397e-04   6.5899933e-04   1.4400165e-04   8.7395592e-05  -3.3165767e-04   4.9475626e-04   6.8263702e-04   6.8259113e-04   8.6608956e-04   2.1915969e-03   0.0000000e+00   1.0080247e-03   2.1803257e-04   2.9884411e-04   2.0834435e-03   2.8477820e-03   0.0000000e+00   0.0000000e+00   2.9428522e-05
   3.1460326e-05   2.0929272e-05   7.3674602e-06   1.6932433e-05   1.9797604e-05   2.4044038e-06  -1.7406758e-05   4.4310846e-06  -6.7996476e-05   1.2185142e-05  -1.0532900e-05  -1.8983860e-05   2.2615732e-05  -2.1105819e-05  -2.9837096e-05  -6.2399790e-05  -3.2434731e-05  -4.6509580e-05  -8.5842480e-05  -1.6751914e-05  -3.2689947e-05   3.9278449e-05  -2.5865108e-05   4.2960245e-05  -3.1936158e-06  -1.5589183e-05  -1.9943907e-07  -2.9214169e-05  -8.2634675e-05   0.0000000e+00  -1.0154847e-05  -1.5398649e-05   1.4484887e-05  -1.2711130e-04  -1.2164880e-04   0.0000000e+00   0.0000000e+00   1.4792052e-05   3.0117434e-04   3.0632387e-04   1.0520866e-04   3.6592807e-04   5.7430326e-05  -3.9433895e-05  -2.4993014e-05  -2.4762270e-04  -3.9633849e-04   9.5185149e-05   1.4430300e-04   1.7970521e-05  -2.3198060e-05  -2.4394247e-04  -4.6975617e-04  -6.7629810e-04  -3.2597459e-04  -1.2518306e-05   8.2586994e-05   3.2161698e-04   3.7738648e-04   4.9799730e-05  -5.5532856e-06   2.9627827e-04  -6.4295405e-05  -4.2122135e-05  -6.7852711e-05  -9.7435591e-06  -3.3639864e-04   0.0000000e+00   4.0419408e-05   6.1210512e-05   2.3578825e-04  -2.1188685e-04  -4.9521904e-04   0.0000000e+00   0.0000000e+00   1.4714571e-04   1.7400053e-05  -3.7754435e-04  -4.3858995e-04  -6.6768974e-04  -5.8109715e-04  -7.2872638e-04  -2.8336909e-04  -1.3419532e-04  -1.9283317e-04  -6.7338700e-04  -5.5315190e-04  -1.1307369e-03   7.4332730e-05   6.2188299e-05  -8.1977860e-05  -3.0058765e-04  -5.6375238e-04  -1.2384812e-03  -1.5647520e-03  -1.6086781e-03  -1.7315771e-03  -3.0169542e-04  -9.2535643e-04  -6.9164013e-04  -1.2994068e-04  -1.8481356e-03  -1.3358138e-03  -1.0024426e-03   2.9502266e-04   0.0000000e+00   1.0308828e-04  -4.2194805e-04  -1.0954163e-03  -8.7584941e-05   5.5360020e-04   0.0000000e+00   0.0000000e+00  -1.1904349e-05  -1.0834132e-04  -1.2458426e-04   8.7953575e-06   2.7683999e-05  -9.3274034e-05  -8.7360298e-05  -1.1796516e-04  -4.3515443e-05  -1.8041454e-04  -7.8796552e-05  -1.5135232e-04  -1.2654354e-04  -6.9755220e-05  -1.1076031e-04  -1.2105322e-04  -1.3911283e-04  -1.8461934e-04  -9.5830954e-05  -1.8826850e-04  -2.5115980e-04  -2.4435015e-04  -1.6224229e-04  -9.6265146e-05   1.7193107e-05  -8.4371304e-06  -1.2739993e-04  -1.0136123e-04  -1.5572298e-04  -1.7758817e-04   0.0000000e+00  -1.8958679e-04  -7.0738430e-05  -1.2143210e-04  -2.9898886e-04  -2.3416041e-04   0.0000000e+00   0.0000000e+00  -9.6899792e-05   2.0837425e-04   1.3218034e-04   2.4703818e-05   8.1850026e-05   2.1274288e-04   1.5069273e-04   1.4146625e-04   3.9806477e-05   4.6605292e-05   1.1762643e-04   1.4787942e-05   1.7519072e-04   2.2018500e-05   9.9325745e-05   3.0674361e-05   1.3613584e-04   1.4344129e-04   2.0534493e-04   7.0420711e-05  -2.2989682e-06   3.5409843e-05   2.0617945e-04   1.9395301e-04   1.5472255e-04   8.9023409e-05   3.5675842e-05  -2.0468652e-04   7.5791399e-06   1.2101318e-04   0.0000000e+00   1.9340967e-04   7.6764653e-05  -7.1925901e-05   1.2461057e-04   1.4354153e-04   0.0000000e+00   0.0000000e+00   5.4434642e-05   8.1634963e-05   5.5520355e-05   6.7020838e-05   7.4172735e-05   6.0489057e-05   4.5835743e-05   1.2298039e-04   1.7255601e-04   8.6997675e-05   1.1072308e-04   4.0470372e-05   4.4846296e-05   5.6127039e-05   9.8325239e-05   1.7998019e-04   1.5496985e-04   8.5937766e-05   9.9813292e-05  -8.7321162e-05   4.0468723e-05   5.1618455e-06   1.1777079e-04   8.1512460e-05   5.6939449e-05   1.2100174e-05   6.8732737e-05  -1.0435898e-06   1.9884931e-05   7.3858627e-05   0.0000000e+00   1.4392252e-04   3.0483648e-05  -1.3463337e-04   7.7313570e-05   6.0732721e-05   0.0000000e+00   0.0000000e+00   8.5917136e-05   1.3702248e-04   3.7175702e-05   9.6528989e-05   2.7724440e-05   7.5337097e-05   1.5047917e-04  -2.4105296e-04  -3.5909810e-04  -4.7276431e-04   1.0656947e-04   6.6272125e-05   2.8664904e-04  -3.2214940e-06  -2.2321853e-04  -5.2078381e-04  -5.3308391e-04  -1.8996678e-04  -1.0011730e-05   9.3388148e-05  -3.8886276e-05   3.9842859e-05  -3.6645840e-05   7.6425766e-05  -5.4367803e-05  -6.3199539e-05  -2.1699184e-05   9.9540875e-05   1.7390035e-05  -3.3011634e-04   0.0000000e+00   5.6428817e-05  -8.0628246e-06   9.3221948e-05  -3.9584398e-04  -4.5195406e-04   0.0000000e+00   0.0000000e+00   4.8663529e-05   4.3148138e-06  -6.7341381e-06  -3.8481200e-05   5.3053709e-05  -2.9534813e-05  -1.7279470e-05   3.7407509e-05  -6.3586282e-05  -1.1008701e-04  -5.5266690e-05   1.5030425e-05   1.9007564e-05  -3.8906444e-05  -5.6548553e-05  -1.0023303e-04  -1.2955872e-04  -3.5097256e-05   4.5101875e-05   1.6933820e-04  -6.8155387e-05   3.8227638e-05   2.3070310e-05   8.7535459e-05   8.5057061e-05  -3.5367740e-05   1.4292735e-04   1.6132482e-04   2.1866315e-05   7.0460633e-08   0.0000000e+00   1.0474625e-04   4.5945976e-05   1.6341302e-04   1.2001077e-04   2.1286897e-05   0.0000000e+00   0.0000000e+00  -2.8125250e-05   6.0845982e-04   4.7358940e-04   2.5699911e-04   4.2670679e-04   6.7673378e-04   6.6800288e-04   2.4542806e-04   1.6930598e-04   1.9667572e-04   5.9891485e-04   3.0631463e-04   8.3107867e-04   3.4205674e-04  -1.8027522e-04   2.5950789e-04   3.7361055e-04   4.9098924e-04   1.4744611e-03   2.3905582e-04   5.9881558e-04   5.3214546e-04   4.1747959e-04   7.4713305e-04   7.6541305e-04   6.8847320e-04   1.3050347e-03   8.3333386e-04   4.9628048e-04   2.4212648e-04   0.0000000e+00   3.5081203e-04  -5.5487634e-05   9.1688611e-04   7.7754124e-04   2.4548464e-04   0.0000000e+00   0.0000000e+00   7.5963601e-05   6.1572270e-05   4.5550099e-05   8.0477182e-05   2.4162229e-05   2.7153436e-05  -7.0662698e-05   3.8673057e-04   2.8963883e-04   6.0709281e-04  -6.9031421e-05  -1.4102210e-06  -1.3354482e-04   1.0442803e-04   4.3547519e-04   3.8439816e-04   5.6885252e-04   3.1376248e-04  -2.7325149e-04  -1.6861608e-05  -2.7834292e-04  -3.0486677e-04   9.9551936e-05  -1.1842911e-04   7.0996808e-05   2.1425756e-04  -2.4939858e-04   4.4521923e-05   6.3942788e-05   6.1330465e-04   0.0000000e+00   3.5707305e-04  -9.2654646e-05   1.0402810e-04   4.5366400e-04   8.5119921e-04   0.0000000e+00   0.0000000e+00   4.0914299e-05   4.0063426e-04  -8.3080136e-04   5.7598605e-04   9.0664639e-04   1.2938213e-04  -3.1745590e-05   5.3322746e-04   3.5496073e-04   2.1186987e-05   1.6167549e-04  -6.6825204e-04  -5.1322690e-04   1.6487564e-04   8.5523900e-05   8.3281562e-05   1.1712400e-05  -9.2923709e-05  -8.4182966e-04  -6.5666036e-04  -1.7200724e-03  -1.4798871e-03   6.0940500e-04  -8.1305235e-05   1.4113942e-03   1.1895874e-03  -1.1387055e-03  -1.3557550e-03  -7.6690597e-04   4.0074540e-04   0.0000000e+00   4.2755298e-04  -3.3604723e-04  -6.2455447e-04  -5.0748795e-05  -4.3350117e-05   0.0000000e+00   0.0000000e+00   1.4866417e-04   4.1662369e-04   4.7006884e-04   2.6774454e-04   2.0059653e-04   2.7948101e-04  -5.8389110e-05   1.4743587e-03   1.5986786e-03   2.7687944e-03  -9.1406175e-05   4.1108034e-04   1.2766533e-04   4.5907182e-04   2.1622312e-03   2.4947240e-03   2.9733957e-03   2.1414648e-03   3.5825210e-04   5.3732324e-04   6.3170654e-04   6.4271812e-04   9.1262056e-05   4.8414962e-05  -3.4979677e-04   4.9332217e-04   6.0820894e-04   6.3759001e-04   8.3447626e-04   2.1746507e-03   0.0000000e+00   1.0144243e-03   1.6918987e-04   3.0461267e-04   2.0714504e-03   2.8241044e-03   0.0000000e+00   0.0000000e+00   2.2577349e-05
   2.6412076e-05   1.3776716e-05   3.8458909e-06   1.1043159e-05   1.6265475e-05   1.4238642e-06  -2.0221522e-05  -4.7767741e-07  -7.1257348e-05   9.9114949e-06  -1.1826475e-05  -2.1144505e-05   2.0053603e-05  -2.3931748e-05  -3.3668733e-05  -6.5621943e-05  -3.5844666e-05  -4.6355363e-05  -8.6265980e-05  -2.3109564e-05  -3.7604206e-05   3.6586233e-05  -2.5613175e-05   4.0325505e-05  -6.6853502e-06  -2.2615708e-05  -6.8517096e-06  -3.3098389e-05  -8.1998125e-05   0.0000000e+00  -9.4059684e-06  -1.6749458e-05   1.4734204e-05  -1.2722573e-04  -1.2151165e-04   0.0000000e+00   0.0000000e+00   1.3021821e-05   3.1673424e-04   3.3403025e-04   1.1148588e-04   3.7383907e-04   7.9359493e-05  -2.7169975e-05  -1.1636608e-05  -2.4996656e-04  -3.9482808e-04   1.0570413e-04   1.5958428e-04   2.7474232e-05  -1.0487110e-05  -2.3743742e-04  -4.8009639e-04  -6.7499488e-04  -3.1975904e-04  -9.3805692e-06   9.9514622e-05   3.3252895e-04   3.6708359e-04   6.2424174e-05  -5.2197451e-07   3.1051573e-04  -4.9811737e-05  -3.0522852e-05  -5.6690030e-05   1.6504929e-05  -3.3435695e-04   0.0000000e+00   5.6772341e-05   6.6389943e-05   2.3538320e-04  -1.9676814e-04  -4.9135252e-04   0.0000000e+00   0.0000000e+00   1.5931678e-04  -2.6296542e-06  -3.8487692e-04  -4.6154291e-04  -6.6987960e-04  -6.0407384e-04  -7.4570855e-04  -2.8930246e-04  -1.3982601e-04  -2.0192113e-04  -6.8964050e-04  -5.3778906e-04  -1.1378710e-03   8.2152115e-05   7.7263850e-05  -8.5262228e-05  -3.0393791e-04  -5.8359668e-04  -1.2510451e-03  -1.4804755e-03  -1.6029892e-03  -1.7269726e-03  -3.2540869e-04  -9.4174220e-04  -7.1116260e-04  -1.4191715e-04  -1.8452221e-03  -1.2706019e-03  -9.9248722e-04   2.7113671e-04   0.0000000e+00   7.9700617e-05  -4.1838945e-04  -1.0762825e-03  -6.3325793e-05   5.4083660e-04   0.0000000e+00   0.0000000e+00  -1.1155028e-05  -1.0431023e-04  -1.1701284e-04  -1.6212378e-06   3.2165975e-05  -8.7026620e-05  -8.2310115e-05  -1.1636421e-04  -5.8804644e-05  -1.5550507e-04  -8.1065307e-05  -1.4290336e-04  -1.1951376e-04  -6.4137793e-05  -9.9635258e-05  -1.1820976e-04  -1.2146627e-04  -1.6548414e-04  -9.8677106e-05  -1.9718777e-04  -2.4198623e-04  -2.3619742e-04  -1.6058427e-04  -9.2957427e-05   1.6642546e-05  -5.8571854e-06  -1.0903621e-04  -8.3889690e-05  -1.3765413e-04  -1.5148823e-04   0.0000000e+00  -1.8525868e-04  -7.3958091e-05  -1.1306858e-04  -2.6144669e-04  -1.9805147e-04   0.0000000e+00   0.0000000e+00  -9.3594440e-05   2.0585723e-04   1.2403481e-04   9.4271293e-06   5.9868349e-05   2.0010222e-04   1.4217035e-04   1.3641737e-04   4.1898270e-05   4.3284341e-05   1.0206787e-04   3.0372808e-06   1.6195409e-04   1.1353151e-05   9.2718861e-05   3.5121493e-05   1.3433331e-04   1.3793083e-04   1.9946843e-04   5.2373547e-05  -2.0426995e-05   1.5348403e-05   1.8478400e-04   1.7905906e-04   1.4103148e-04   8.1910021e-05   8.7470831e-06  -2.1460103e-04  -1.5070608e-07   1.1901774e-04   0.0000000e+00   1.8632981e-04   8.0685629e-05  -9.9897793e-05   1.1988061e-04   1.4636863e-04   0.0000000e+00   0.0000000e+00   4.8323729e-05   7.9729469e-05   5.9776955e-05   7.0017927e-05   5.7492045e-05   6.4061247e-05   4.8460817e-05   1.2295521e-04   1.6807495e-04   9.7811564e-05   1.1389603e-04   4.2873570e-05   4.8039525e-05   5.9694909e-05   1.0213136e-04   1.7760617e-04   1.5945278e-04   8.8416837e-05   1.0321790e-04  -6.9947485e-05   4.2820696e-05   5.7909650e-06   1.2298824e-04   8.4305931e-05   3.3206662e-05   7.8278173e-06   7.1865277e-05  -2.5123089e-06   2.2542451e-05   7.3128944e-05   0.0000000e+00   1.3875906e-04   3.3595176e-05  -1.4228881e-04   8.7134070e-05   6.7759202e-05   0.0000000e+00   0.0000000e+00   8.6962692e-05   1.3837287e-04   4.1501597e-05   1.0072401e-04   3.1395892e-05   7.9071035e-05   1.6176737e-04  -2.5139341e-04  -3.8648438e-04  -5.0389116e-04   1.1462344e-04   8.1425205e-05   3.1112693e-04  -1.0282879e-06  -2.2574946e-04  -5.5457698e-04  -5.6675938e-04  -1.9786858e-04  -6.6734331e-06   1.2459259e-04  -1.4325643e-05   7.1441296e-05  -3.3982532e-05   9.7774965e-05  -5.4843366e-05  -6.8556525e-05   1.2339190e-05   1.4149803e-04   3.0293854e-05  -3.4863477e-04   0.0000000e+00   5.8648488e-05   1.1830403e-05   1.4197333e-04  -3.9821040e-04  -4.7022021e-04   0.0000000e+00   0.0000000e+00   5.5792352e-05   2.7980626e-06  -4.6851960e-06  -5.0592955e-05   4.4168062e-05  -4.0761971e-05  -2.6194062e-05   1.2083678e-05  -9.6077667e-05  -1.1422410e-04  -7.1192446e-05   1.0653725e-05  -1.0907069e-07  -4.9330019e-05  -7.1994847e-05  -1.2168993e-04  -1.4739803e-04  -4.4191963e-05   2.1344667e-05   1.3285804e-04  -9.9586744e-05   2.5766476e-05   2.0631361e-05   8.0662911e-05   8.5891072e-05  -4.3458083e-05   1.1316244e-04   1.4136064e-04   1.2264305e-05  -3.8944173e-07   0.0000000e+00   9.5559939e-05   4.3585418e-05   1.4838779e-04   1.2021443e-04   2.1813602e-05   0.0000000e+00   0.0000000e+00  -3.6515446e-05   5.8135195e-04   4.4689531e-04   1.8405892e-04   3.8619453e-04   6.0186706e-04   6.2607613e-04   2.1145342e-04   1.7095125e-04   1.9204044e-04   5.0571384e-04   2.3920996e-04   8.0133051e-04   2.9886896e-04  -2.1707629e-04   2.8728795e-04   3.7427147e-04   4.6828392e-04   1.4329696e-03   2.7958775e-04   5.8211553e-04   5.1398726e-04   3.3931020e-04   7.1559787e-04   7.3229059e-04   6.5640666e-04   1.2835669e-03   7.8063198e-04   4.6506513e-04   2.4496955e-04   0.0000000e+00   2.7784491e-04  -6.7364921e-05   8.8095646e-04   7.4404382e-04   2.5309584e-04   0.0000000e+00   0.0000000e+00   3.3788338e-05   5.7856026e-05   4.4087708e-05   9.2935822e-05   2.2742116e-05   2.8834685e-05  -6.2684476e-05   3.9677717e-04   3.0010657e-04   6.2717560e-04  -5.8213825e-05   4.4938946e-06  -1.2691453e-04   1.1144330e-04   4.5804693e-04   4.0614277e-04   5.9396056e-04   3.3496723e-04  -2.6518768e-04   1.6583643e-05  -2.6818087e-04  -2.9127494e-04   1.0422162e-04  -1.1326967e-04   7.8142080e-05   2.2546227e-04  -2.2864464e-04   7.1378818e-05   7.9561374e-05   6.1910142e-04   0.0000000e+00   3.6364771e-04  -1.0006343e-04   1.3292674e-04   4.6603322e-04   8.4853524e-04   0.0000000e+00   0.0000000e+00   4.0089217e-05   3.9545634e-04  -8.4001674e-04   5.7685107e-04   9.8810871e-04   9.5685341e-05  -6.8850737e-05   5.0591855e-04   3.6308483e-04   2.1185066e-06   1.2868042e-04  -6.6110787e-04  -5.1972881e-04   1.4952602e-04   5.9940935e-05   6.3395380e-05  -9.5711730e-06  -9.8321655e-05  -9.0632230e-04  -6.1800553e-04  -1.6645992e-03  -1.4358709e-03   5.6744938e-04  -1.0907789e-04   1.3571369e-03   1.1422601e-03  -1.1747032e-03  -1.3109112e-03  -7.7431959e-04   3.6260794e-04   0.0000000e+00   3.8331656e-04  -3.6112654e-04  -5.6312327e-04  -7.9528351e-05  -6.2813129e-05   0.0000000e+00   0.0000000e+00   1.4087516e-04   4.0778243e-04   4.4770284e-04   2.5018299e-04   1.9152130e-04   2.4826037e-04  -9.1432821e-05   1.4565875e-03   1.5628553e-03   2.7658584e-03  -1.4526402e-04   3.7112338e-04   8.9825925e-05   4.6253351e-04   2.1453423e-03   2.4496038e-03   2.9441018e-03   2.1103063e-03   2.6797100e-04   4.9788974e-04   5.8722269e-04   6.1931115e-04   3.8395363e-05   6.3539749e-06  -3.6746646e-04   4.8761303e-04   5.2478678e-04   5.8519235e-04   7.9774888e-04   2.1550239e-03   0.0000000e+00   1.0151602e-03   1.2185973e-04   2.9827868e-04   2.0485611e-03   2.7916720e-03   0.0000000e+00   0.0000000e+00   1.5448431e-05
