   8.8795928e-05   9.9086902e-05   3.3901204e-05   6.5302598e-05   6.3119174e-05   5.5208317e-05   3.1486289e-04   2.1664242e-05   2.4807772e-05  -8.2742939e-06   1.0290960e-04   5.5270680e-05   3.5827328e-05   1.0972011e-04   1.5649032e-04   9.7012333e-05   6.6555278e-05   4.7236350e-05   5.1305735e-05   1.1393417e-04   1.3581637e-04   8.0378074e-05   6.7840694e-05   3.1012371e-05   4.4986892e-05   7.7500347e-05   3.2000804e-05   2.9965572e-05   9.6729281e-05   1.2328747e-05   3.2676260e-04   1.2776757e-04   0.0000000e+00   5.5829159e-05   3.8732313e-05   9.2856441e-05   1.0887511e-04   7.9013697e-05   1.0610308e-04   1.5039720e-04   5.9695172e-05   7.5901354e-05   2.3567543e-05   5.4785977e-05   1.7697673e-04  -7.2090224e-06   1.8975603e-06  -2.7767117e-05   1.9201378e-04   7.2041393e-05  -9.4383071e-05  -5.6447207e-05   8.3901717e-05   2.2077844e-05   1.9343842e-05   1.6645931e-04   1.6058933e-04   1.2862407e-04   1.0733355e-04   4.1930888e-05   4.6207382e-05   1.1327402e-04   9.1114256e-05   3.7808653e-05  -1.5780686e-05   1.5832411e-05   1.2072304e-04   4.2957102e-08  -7.3258000e-06   1.0571830e-04   0.0000000e+00   9.1134474e-05   7.6330615e-05   2.6605116e-05   9.2158712e-05   8.4713630e-05  -3.1162104e-05  -4.9768287e-05  -1.8597362e-05   5.6364287e-05  -3.8910611e-05  -1.6648884e-05  -2.2567159e-04  -1.9980831e-04  -5.4493527e-05  -2.1073773e-05  -1.2203590e-05  -2.8933329e-05  -3.5360933e-05  -1.7309721e-04  -1.1125206e-04  -1.6074956e-04  -1.7498862e-05  -1.4468708e-04  -1.3891481e-04  -2.3857635e-05   9.7471551e-05   3.5934144e-05  -6.1697425e-06   7.2412286e-05   2.1060786e-05   4.9625392e-05  -8.4396579e-05   3.5258957e-05   5.8065246e-06   6.7589790e-06  -2.6215091e-04   1.3504804e-04   0.0000000e+00   5.7496705e-05   2.7437805e-05  -7.9209662e-05  -1.5122721e-04  -3.3954069e-06  -8.8775952e-06   2.3100422e-05  -2.0594513e-05   3.4389893e-06  -2.1169065e-06  -8.0995046e-06   2.3066513e-04   2.4105368e-04   2.3055670e-05  -3.3673042e-05  -2.9687327e-05  -2.7132180e-05  -3.3424944e-06   1.2177889e-04   1.4189687e-04   6.2479688e-05  -1.2450007e-05  -1.0778399e-06  -7.3432165e-06  -1.0029263e-05   1.3280420e-05  -9.0806324e-06  -3.1997080e-06   5.6492252e-06   4.9107833e-06  -2.4726982e-05  -4.0396311e-05  -1.5999774e-05   4.1644672e-05   1.0021029e-04   2.4963250e-04   1.4476933e-05   0.0000000e+00  -1.4983434e-05   1.9294149e-05   2.2613536e-05   7.4210032e-05   1.2524151e-04  -1.0553353e-04   3.6915447e-05  -7.4920621e-05  -7.6731298e-05  -1.0868549e-04  -8.0129159e-05  -8.7251496e-05   1.7449415e-05  -1.4787245e-04  -1.0194288e-04  -1.8403492e-04  -1.1541147e-04  -1.1740322e-04  -1.4349835e-05  -1.6761081e-04  -2.4940062e-04  -1.9673032e-04  -1.1949149e-05  -5.3259327e-05  -1.2072613e-04  -1.4701629e-04  -8.8114219e-05  -6.8603352e-05  -6.9279272e-05  -4.7475841e-05  -9.1849159e-05  -1.1302007e-04  -5.9667455e-05  -5.0172576e-05  -9.6617622e-05  -9.4627410e-05  -1.3103585e-04   0.0000000e+00  -1.0705851e-04  -6.3488363e-05  -1.3581548e-04  -5.9637045e-05  -8.5762144e-05  -2.3582357e-05  -1.0148253e-05  -4.8198922e-05  -1.7285657e-05  -3.5234365e-05  -3.2660601e-05  -2.4115095e-04  -1.4141868e-04  -8.1593500e-05  -4.5616313e-05  -7.2882788e-05  -5.5166476e-05  -5.1102022e-05  -1.7256299e-04  -1.6222460e-04  -1.4344533e-04  -7.6245452e-05  -2.8825958e-05  -3.1707068e-05  -3.9474310e-05  -6.5091454e-05  -3.0988501e-05  -3.0244800e-05  -2.8034168e-05  -2.0612636e-05  -6.3318709e-05  -4.0088851e-05  -2.4176845e-05  -4.0941207e-05  -1.0815120e-04  -3.3660910e-04  -6.7205676e-05   0.0000000e+00  -2.8100740e-05  -3.3505230e-05  -8.2548130e-05  -1.7705502e-04  -1.0799687e-04  -1.2045672e-04  -9.2760585e-05  -6.7291306e-06  -8.2593871e-05   1.9591235e-05  -6.4587368e-05  -1.3399551e-04  -7.5475315e-05  -5.8435177e-06  -7.9165864e-05  -1.5985287e-04  -1.7701102e-04  -6.0249711e-05   2.7651266e-05  -1.1819355e-04  -2.7256532e-05  -3.5347367e-05  -1.3306960e-04  -1.1882003e-04  -2.9630571e-05  -1.0771940e-04  -4.5165573e-05  -6.9694108e-05  -2.7881277e-05  -8.0265824e-06  -1.0615719e-04  -7.7133533e-05  -8.6292586e-05  -5.4669675e-05  -3.1635909e-05  -4.9132801e-05  -1.2747583e-04   0.0000000e+00  -4.9511072e-05  -1.7408446e-05  -3.6727268e-05  -1.0848832e-04  -5.5572670e-05  -7.4502036e-05  -6.7991147e-05  -1.0769267e-04  -8.9385324e-05  -5.1237601e-05  -7.4355054e-05  -7.3589935e-05  -5.6015609e-05  -9.1995393e-05  -1.1800804e-04  -1.8485922e-04  -1.5030569e-04  -1.0013712e-04  -6.9553736e-05  -8.1144662e-05  -1.4803561e-04  -1.1768607e-04  -3.4559836e-05  -4.0358466e-05  -1.2502111e-04  -1.4029443e-04  -6.1868575e-05  -6.4277074e-05  -5.9482558e-05  -3.8627182e-05  -1.3071583e-04  -6.9097230e-05  -6.2935143e-05  -2.6446194e-05  -6.0853408e-05  -5.2326595e-05  -1.5082427e-04   0.0000000e+00  -1.1465521e-04  -3.3513489e-05  -4.6781958e-05  -2.8323324e-05  -7.6772459e-05   7.7987706e-05   3.1931879e-04  -2.9722976e-05   1.2780491e-04   3.2950324e-05  -9.8485994e-05   7.5472364e-05  -8.7153834e-04  -1.1589178e-04  -1.2460487e-04  -9.4819465e-05  -1.9866462e-04   3.4832357e-05  -4.1708121e-04  -1.6586968e-04  -9.6212723e-05   1.0887625e-04  -5.2155755e-05  -1.6817153e-04  -4.4319971e-04  -3.4643355e-04  -1.9144970e-05  -1.2937514e-04  -3.7602309e-05  -8.5221109e-06  -4.5025043e-04  -2.8130597e-04  -1.2940831e-04   9.4108167e-05  -3.0248899e-04  -5.6262935e-04  -4.1336797e-04   0.0000000e+00  -2.1165433e-04   7.3719168e-05   1.1612337e-04  -3.8821619e-04  -7.2887800e-04  -6.5437147e-05  -9.7295660e-05  -1.1606484e-04  -1.2486645e-04  -8.8709466e-05  -5.3607808e-05  -5.5257671e-04  -3.8704045e-04  -3.0290578e-04  -1.0137244e-04  -1.2267434e-04  -8.8279798e-05  -2.5132681e-04  -4.5596775e-04  -4.4198907e-04  -4.4347639e-04  -3.1142816e-04   5.2847191e-05   1.1860791e-05  -1.1056873e-04  -1.0977979e-04  -9.4271812e-05  -5.0633951e-05  -9.9739335e-05  -8.4914340e-05  -5.0167126e-05  -3.3409352e-05  -3.3468995e-05  -1.9535444e-04  -1.5389820e-04  -7.5350568e-04  -1.1248553e-04   0.0000000e+00  -1.2479303e-04  -1.7649983e-04  -2.9145564e-04  -2.8911885e-04  -1.8842250e-04  -3.2449372e-05  -1.5070106e-04  -8.6185762e-05  -1.0530269e-04  -3.9295208e-05  -4.3179006e-06   5.3177731e-07  -3.8945193e-05  -4.9790997e-05  -3.9402863e-05  -4.6038992e-05   4.4699268e-06  -6.7103139e-05   2.3641945e-05   5.4686731e-06  -7.9288525e-06   3.9752904e-05  -6.3354167e-05  -5.9180324e-05   1.1376938e-04  -5.4633225e-06  -4.2208862e-05  -3.3596849e-05  -5.5195396e-05  -5.8439190e-05   4.3798202e-05   6.0351401e-05   5.1183506e-06  -4.5105141e-05  -1.4366276e-05  -2.2708651e-05   1.2777680e-05   0.0000000e+00   5.9235026e-05  -8.6954098e-05   2.1556878e-05  -5.2189910e-05   3.6572477e-05
   9.7263324e-05   1.1160871e-04   3.8096729e-05   7.1643280e-05   6.6888347e-05   5.7460830e-05   3.4589843e-04   4.8054430e-05   3.1453257e-05  -9.1408041e-06   1.0762019e-04   5.7460821e-05   4.3440181e-05   1.2504632e-04   1.6981606e-04   1.0711279e-04   6.4427607e-05   4.8070199e-05   5.2718572e-05   1.1770771e-04   1.4624671e-04   8.6067625e-05   7.2882913e-05   3.2165317e-05   4.7177923e-05   8.0033176e-05   2.9704655e-05   3.1341882e-05   1.0512277e-04   1.7831686e-05   3.5993380e-04   1.3449178e-04   0.0000000e+00   5.6100740e-05   3.8384084e-05   9.2850421e-05   1.1521053e-04   1.0081507e-04   1.1119870e-04   1.7248521e-04   4.7073813e-05   9.2132367e-05   8.5975556e-06   5.7888236e-05   2.2296999e-04  -1.1380598e-05   8.2537590e-06  -2.2035893e-05   2.0779013e-04   8.5468097e-05  -9.2356476e-05  -5.4140329e-05   8.3263923e-05   2.2135448e-05   1.7666456e-05   1.8223026e-04   1.8111952e-04   1.3846933e-04   1.0831902e-04   2.6460784e-05   4.5753066e-05   1.1551563e-04   9.7957863e-05   3.7225505e-05  -1.7817046e-05   1.2487375e-05   1.3182834e-04   1.2425580e-05  -1.7397241e-05   1.0291905e-04   0.0000000e+00   8.9792561e-05   7.4099496e-05   2.6186331e-05   1.0649639e-04   1.0199489e-04  -4.2084277e-05  -5.6153435e-05  -1.6273232e-05   6.7806225e-05  -4.7271756e-05  -2.6273562e-05  -2.6167615e-04  -2.2650249e-04  -5.9560497e-05  -1.5059568e-05  -2.8343832e-05  -3.3217588e-05  -3.0463162e-05  -2.0010481e-04  -1.4235047e-04  -1.8551924e-04  -3.3980129e-05  -1.7409724e-04  -1.6336688e-04  -4.6135584e-05   9.5114417e-05   3.4940481e-05  -1.1276717e-05   7.5179562e-05   1.8399568e-05   4.4953078e-05  -1.0009544e-04   3.6531195e-05  -2.2168048e-06   8.4652202e-06  -3.0865918e-04   1.4022340e-04   0.0000000e+00   4.5402230e-05   2.3333350e-05  -9.5254573e-05  -1.7981034e-04  -7.0100335e-07  -1.3161600e-05   1.8114929e-05  -2.2265961e-05   1.1774500e-06  -5.1419322e-06  -1.1356137e-05   2.3340246e-04   2.7593346e-04   3.0497443e-05  -3.2754148e-05  -3.6712813e-05  -3.1003436e-05   5.6783173e-07   1.2240415e-04   1.4168969e-04   6.4950338e-05  -1.8063232e-05  -5.2448952e-06  -9.6034486e-06  -2.0085533e-05   7.2407007e-06  -1.1828689e-05  -5.4897334e-06   8.9867689e-06   5.2112687e-06  -3.0770098e-05  -4.3724934e-05  -1.5712861e-05   4.3115475e-05   1.1301935e-04   2.4943795e-04   1.2223627e-05   0.0000000e+00  -1.7614879e-05   2.1744859e-05   2.1822630e-05   7.6696337e-05   1.4342046e-04  -1.2368124e-04   3.2500278e-05  -8.4412519e-05  -9.2916763e-05  -1.2390301e-04  -9.5073961e-05  -1.2758507e-04   2.6188939e-05  -1.6362229e-04  -1.1366872e-04  -2.1818292e-04  -1.3833131e-04  -1.2663084e-04  -1.8747350e-05  -1.9733861e-04  -2.8292219e-04  -2.2142440e-04  -2.5295658e-05  -7.3798450e-05  -1.4565076e-04  -1.6868316e-04  -1.0526260e-04  -8.1657222e-05  -8.2566633e-05  -5.8177788e-05  -1.0642095e-04  -1.2997950e-04  -7.0045156e-05  -6.3360854e-05  -1.1118388e-04  -1.3045711e-04  -1.5244767e-04   0.0000000e+00  -1.2344735e-04  -7.2536282e-05  -1.5292454e-04  -7.2342601e-05  -9.5848761e-05  -2.7836189e-05  -1.5054913e-05  -5.5798586e-05  -2.1372328e-05  -4.2726631e-05  -3.7777002e-05  -2.8670686e-04  -1.6286969e-04  -9.1474061e-05  -4.7520781e-05  -8.5372155e-05  -6.2482088e-05  -6.1044793e-05  -2.0317141e-04  -1.9197462e-04  -1.6399860e-04  -8.7546077e-05  -3.3434966e-05  -3.6250593e-05  -4.3824572e-05  -7.5444782e-05  -3.7122024e-05  -3.4327629e-05  -2.9789129e-05  -2.2849513e-05  -6.8871284e-05  -4.1011922e-05  -2.6971401e-05  -5.0111502e-05  -1.2431769e-04  -3.9777387e-04  -7.6007439e-05   0.0000000e+00  -3.2252311e-05  -4.0332133e-05  -9.8248431e-05  -2.0849138e-04  -1.2739659e-04  -1.2694189e-04  -1.0626082e-04   3.6545158e-06  -7.8364310e-05   3.6769036e-05  -6.3039082e-05  -1.4721015e-04  -7.7033199e-05   1.9189526e-06  -8.1665018e-05  -1.6247097e-04  -1.8780227e-04  -6.5798659e-05   3.1978026e-05  -1.2727102e-04  -2.4483721e-05  -3.0279100e-05  -1.3911369e-04  -1.2129627e-04  -1.6110709e-05  -1.0834811e-04  -3.8987570e-05  -7.0113017e-05  -1.8084392e-05   1.5970021e-06  -1.0279871e-04  -7.3792857e-05  -8.9609718e-05  -5.2122367e-05  -3.8738024e-05  -3.1466514e-05  -1.2434962e-04   0.0000000e+00  -3.9718223e-05  -8.4379884e-06  -3.2840246e-05  -1.1505760e-04  -5.5515113e-05  -7.8608966e-05  -7.7649114e-05  -1.1512126e-04  -9.5562932e-05  -5.2183268e-05  -7.7255067e-05  -1.0185086e-04  -3.7065225e-05  -9.5975362e-05  -1.2042691e-04  -1.9987020e-04  -1.5822628e-04  -1.1057927e-04  -7.7118332e-05  -1.0255319e-04  -1.6138726e-04  -1.3129008e-04  -3.5780515e-05  -4.0745097e-05  -1.3164275e-04  -1.5172741e-04  -6.9925200e-05  -6.6997253e-05  -6.6311309e-05  -4.3710176e-05  -1.3464702e-04  -7.0211748e-05  -6.5544944e-05  -3.1346494e-05  -6.3702614e-05  -7.3425786e-05  -1.6608544e-04   0.0000000e+00  -1.2270447e-04  -3.5167508e-05  -5.5343975e-05  -2.5517031e-05  -7.2714976e-05   7.1685271e-05   3.5500727e-04  -3.5246592e-05   1.2777086e-04   2.6381589e-05  -1.2154230e-04  -4.0610010e-05  -1.0219458e-03  -1.8062161e-04  -1.3800798e-04  -1.1771871e-04  -2.3550496e-04   2.0738478e-05  -4.9776402e-04  -2.5261748e-04  -1.8131558e-04   8.5858376e-05  -4.9810073e-05  -1.9097143e-04  -5.1888554e-04  -4.1401148e-04  -3.0298693e-05  -1.5727071e-04  -3.9072518e-05  -6.4588239e-06  -5.2050081e-04  -3.2396322e-04  -1.4694069e-04   6.4513879e-05  -4.6324551e-04  -7.8277305e-04  -4.9391112e-04   0.0000000e+00  -2.5366460e-04   6.9054115e-05   7.9835319e-05  -4.9394598e-04  -8.3302326e-04  -7.1284236e-05  -1.1436161e-04  -1.2758628e-04  -1.3704643e-04  -9.7119728e-05  -5.8516070e-05  -6.2973265e-04  -4.1935021e-04  -3.3005386e-04  -1.0608442e-04  -1.3424503e-04  -9.3779849e-05  -2.8055330e-04  -5.1048620e-04  -5.0398587e-04  -4.9631635e-04  -3.4562839e-04   5.9132858e-05   1.7016882e-05  -1.2220884e-04  -1.2569452e-04  -1.0325406e-04  -5.3421038e-05  -1.0723649e-04  -9.2717431e-05  -5.0390359e-05  -2.2410440e-05  -3.2416366e-05  -2.1636464e-04  -1.7787490e-04  -8.5972405e-04  -1.2189522e-04   0.0000000e+00  -1.3356210e-04  -1.9631303e-04  -3.2926988e-04  -3.1884983e-04  -1.9386785e-04  -4.0189675e-05  -1.9070765e-04  -9.5637047e-05  -1.2704932e-04  -4.2590194e-05  -2.5278586e-06  -4.1318769e-07  -4.3096134e-05  -5.1922118e-05  -3.9080773e-05  -5.8736928e-05   7.0864266e-06  -7.2103395e-05   2.2806307e-05   1.3589663e-05  -4.5203538e-06   4.7269448e-05  -7.7086801e-05  -6.5112483e-05   1.3791042e-04   6.5358375e-06  -4.4023828e-05  -3.3852636e-05  -5.5655983e-05  -6.5989728e-05   6.2451349e-05   7.7850094e-05   7.8353605e-06  -5.2091087e-05  -1.4238678e-05  -3.2188772e-05   3.1248550e-05   0.0000000e+00   6.7641347e-05  -9.3212266e-05   2.3086822e-05  -6.1741365e-05   3.9711558e-05
   1.0405230e-04   1.2319378e-04   4.1439532e-05   7.6930263e-05   6.8852711e-05   5.7993976e-05   3.7144751e-04   7.6982732e-05   3.8229572e-05  -1.0025068e-05   1.0932235e-04   5.7933938e-05   5.1212551e-05   1.3919604e-04   1.8010853e-04   1.1577817e-04   5.9726672e-05   4.7295778e-05   5.2444489e-05   1.1771873e-04   1.5327184e-04   8.9676161e-05   7.6226410e-05   3.2161033e-05   4.8085560e-05   7.9790745e-05   2.5765912e-05   3.1603355e-05   1.1154390e-04   2.3919177e-05   3.8720236e-04   1.3748205e-04   0.0000000e+00   5.4259857e-05   3.6488107e-05   8.9799924e-05   1.1895325e-04   1.2266895e-04   1.1387121e-04   1.9260107e-04   2.7900088e-05   1.0974257e-04  -9.4961001e-06   5.9537238e-05   2.7154322e-04  -1.7229413e-05   1.3992853e-05  -1.3388793e-05   2.1945807e-04   9.9455667e-05  -8.5668454e-05  -4.6779257e-05   7.8757466e-05   2.1354165e-05   1.5360143e-05   1.9337982e-04   1.9776004e-04   1.4549036e-04   1.0553339e-04   6.2994011e-06   4.3648624e-05   1.1295650e-04   1.0232493e-04   3.5710960e-05  -1.9796860e-05   8.5515455e-06   1.3939923e-04   2.7758543e-05  -2.8662883e-05   9.5144296e-05   0.0000000e+00   8.5482547e-05   6.8545726e-05   2.4698345e-05   1.1877718e-04   1.1750578e-04  -5.3373973e-05  -6.3747148e-05  -1.2702163e-05   7.9167459e-05  -5.4873684e-05  -3.6500496e-05  -2.9559832e-04  -2.5353731e-04  -6.3989787e-05  -7.1009514e-06  -4.6370156e-05  -3.6636749e-05  -2.3137422e-05  -2.2396199e-04  -1.7273129e-04  -2.0858662e-04  -5.2334896e-05  -2.0234594e-04  -1.8643209e-04  -7.1899546e-05   8.8944056e-05   3.4761478e-05  -1.5712377e-05   7.7571627e-05   1.5372471e-05   3.7861129e-05  -1.1491063e-04   3.7573610e-05  -1.0795901e-05   9.2256450e-06  -3.5100700e-04   1.4318419e-04   0.0000000e+00   3.0557253e-05   1.8818322e-05  -1.1031638e-04  -2.0756639e-04   2.7582561e-06  -1.7676248e-05   1.1605110e-05  -2.3413646e-05  -1.4011384e-06  -8.3228075e-06  -1.4764141e-05   2.3052457e-04   3.0760894e-04   3.9298553e-05  -3.0116839e-05  -4.3730952e-05  -3.4617421e-05   5.9214318e-06   1.2112093e-04   1.3873072e-04   6.7849627e-05  -2.2391316e-05  -1.0799988e-05  -1.2506779e-05  -3.1747142e-05  -1.0673903e-08  -1.4522436e-05  -7.9629154e-06   1.2488854e-05   5.1308606e-06  -3.6638786e-05  -4.5283280e-05  -1.4728360e-05   4.3414072e-05   1.2505750e-04   2.4462746e-04   9.2364351e-06   0.0000000e+00  -2.0337023e-05   2.4145403e-05   2.0705749e-05   7.7871464e-05   1.5900064e-04  -1.4214266e-04   2.5362765e-05  -9.3011347e-05  -1.0981100e-04  -1.3808590e-04  -1.1007181e-04  -1.7388544e-04   3.7248846e-05  -1.7621140e-04  -1.2330779e-04  -2.5218839e-04  -1.6151602e-04  -1.3295220e-04  -2.3579689e-05  -2.2644564e-04  -3.1231980e-04  -2.4325688e-04  -4.0801291e-05  -9.6080078e-05  -1.7132986e-04  -1.8935034e-04  -1.2266464e-04  -9.4935324e-05  -9.5888899e-05  -6.9662018e-05  -1.2078696e-04  -1.4625630e-04  -8.0330236e-05  -7.8088505e-05  -1.2528064e-04  -1.7230185e-04  -1.7390523e-04   0.0000000e+00  -1.3939939e-04  -8.1352875e-05  -1.6948183e-04  -8.6913147e-05  -1.0450786e-04  -3.1834487e-05  -2.0508427e-05  -6.2628767e-05  -2.5537984e-05  -4.9766298e-05  -4.2197392e-05  -3.3117114e-04  -1.8643697e-04  -1.0114968e-04  -4.7932099e-05  -9.6729863e-05  -6.8592670e-05  -7.1807079e-05  -2.3399359e-04  -2.2089808e-04  -1.8370239e-04  -9.7893588e-05  -3.7185994e-05  -3.9650719e-05  -4.7101129e-05  -8.5084269e-05  -4.2854599e-05  -3.7829359e-05  -3.0943513e-05  -2.4475449e-05  -7.2738511e-05  -4.0085560e-05  -2.9312939e-05  -5.9641261e-05  -1.3904278e-04  -4.5701353e-04  -8.3649193e-05   0.0000000e+00  -3.5974326e-05  -4.7222680e-05  -1.1304810e-04  -2.3999601e-04  -1.4882274e-04  -1.2923525e-04  -1.1900306e-04   1.6172198e-05  -6.8980964e-05   5.6324113e-05  -5.8489954e-05  -1.5750426e-04  -7.4455109e-05   1.2088272e-05  -8.1303544e-05  -1.5758444e-04  -1.9276201e-04  -6.9256551e-05   3.6173469e-05  -1.3425980e-04  -1.9684952e-05  -2.1782307e-05  -1.4074133e-04  -1.1940418e-04   2.8732979e-06  -1.0282428e-04  -2.9279138e-05  -6.7000470e-05  -3.7763910e-06   1.3856258e-05  -9.2922469e-05  -6.5573184e-05  -8.9028889e-05  -4.6617620e-05  -4.9345838e-05  -1.0202853e-05  -1.1384811e-04   0.0000000e+00  -2.4924280e-05   3.5627772e-06  -2.8013094e-05  -1.1672826e-04  -5.2125196e-05  -8.1072383e-05  -8.7106540e-05  -1.1929691e-04  -1.0000797e-04  -5.1864015e-05  -7.8524387e-05  -1.3703598e-04  -1.0857832e-05  -9.6874280e-05  -1.1843724e-04  -2.1093022e-04  -1.6205908e-04  -1.1970282e-04  -8.4374239e-05  -1.2699201e-04  -1.7169175e-04  -1.4351618e-04  -3.7055444e-05  -4.1086666e-05  -1.3597777e-04  -1.6112010e-04  -7.7845325e-05  -6.8413156e-05  -7.2483113e-05  -4.8786567e-05  -1.3483471e-04  -7.0370907e-05  -6.6321769e-05  -3.6901312e-05  -6.4837362e-05  -1.0087259e-04  -1.7971559e-04   0.0000000e+00  -1.2834039e-04  -3.5670969e-05  -6.4818555e-05  -2.1849107e-05  -6.4829302e-05   6.1032484e-05   3.8457816e-04  -4.0081218e-05   1.2300720e-04   1.7586615e-05  -1.4509218e-04  -1.8317640e-04  -1.1651450e-03  -2.4608218e-04  -1.4752766e-04  -1.4160961e-04  -2.7030937e-04   7.3312161e-06  -5.7556042e-04  -3.5108203e-04  -2.7398544e-04   5.6406231e-05  -4.8126067e-05  -2.1235440e-04  -5.9153987e-04  -4.7983641e-04  -4.3295154e-05  -1.8511539e-04  -4.0595318e-05  -7.4556738e-06  -5.8519161e-04  -3.6081346e-04  -1.6214081e-04   2.3842673e-05  -6.3555183e-04  -1.0287614e-03  -5.7389414e-04   0.0000000e+00  -2.9606578e-04   5.7840060e-05   3.0376269e-05  -6.0835826e-04  -9.2943715e-04  -7.6591498e-05  -1.3271601e-04  -1.3612536e-04  -1.4754390e-04  -1.0380907e-04  -6.2351831e-05  -7.0461055e-04  -4.4625486e-04  -3.5076939e-04  -1.0670779e-04  -1.4350671e-04  -9.7015286e-05  -3.0548414e-04  -5.6055555e-04  -5.6308025e-04  -5.4318145e-04  -3.7468827e-04   6.3265827e-05   2.2061298e-05  -1.3323265e-04  -1.4064699e-04  -1.1071328e-04  -5.5060801e-05  -1.1323576e-04  -9.9437862e-05  -4.8735594e-05  -7.1197713e-06  -2.9881554e-05  -2.3562447e-04  -2.0307106e-04  -9.6077413e-04  -1.2895180e-04   0.0000000e+00  -1.4006808e-04  -2.1446557e-04  -3.6566838e-04  -3.4638102e-04  -1.9669790e-04  -4.8147364e-05  -2.3452855e-04  -1.0310764e-04  -1.4837158e-04  -4.4787852e-05   7.6278051e-07  -2.2913379e-06  -4.4213219e-05  -5.1105188e-05  -3.6554002e-05  -7.0689558e-05   1.1148612e-05  -7.4566802e-05   2.0807857e-05   2.2255974e-05  -2.0621657e-07   5.5500601e-05  -8.9791673e-05  -6.8538680e-05   1.6320807e-04   2.1123900e-05  -4.3794217e-05  -3.2330320e-05  -5.3120635e-05  -7.2822765e-05   8.4161045e-05   9.8615532e-05   1.1537415e-05  -5.8254459e-05  -1.2540029e-05  -4.3630572e-05   5.3911681e-05   0.0000000e+00   7.6733181e-05  -9.7173457e-05   2.3245828e-05  -7.1023800e-05   4.1396139e-05
   1.0900359e-04   1.3375915e-04   4.3657084e-05   8.1066306e-05   6.8948177e-05   5.6758443e-05   3.9146854e-04   1.0690432e-04   4.4774168e-05  -1.1086212e-05   1.0791942e-04   5.6551910e-05   5.8950123e-05   1.5189942e-04   1.8741145e-04   1.2277749e-04   5.2697239e-05   4.4990315e-05   5.0497926e-05   1.1390570e-04   1.5661088e-04   9.1080625e-05   7.7742683e-05   3.0903020e-05   4.7729949e-05   7.6623574e-05   2.0288273e-05   3.0632771e-05   1.1594167e-04   3.0337970e-05   4.0846818e-04   1.3658057e-04   0.0000000e+00   5.0316178e-05   3.3113129e-05   8.4032126e-05   1.2015430e-04   1.4357619e-04   1.1424374e-04   2.0998360e-04   2.5676286e-06   1.2844224e-04  -2.9891234e-05   5.9620384e-05   3.2035539e-04  -2.4341880e-05   1.7883163e-05  -2.1872389e-06   2.2673536e-04   1.1368429e-04  -7.4743491e-05  -3.4484835e-05   6.9703281e-05   1.8935192e-05   1.2049249e-05   1.9954206e-04   2.0965456e-04   1.4941140e-04   9.9139024e-05  -1.7939771e-05   3.9933624e-05   1.0567805e-04   1.0410636e-04   3.3354576e-05  -2.2177379e-05   4.3157713e-06   1.4289392e-04   4.5426479e-05  -4.1716808e-05   8.2639926e-05   0.0000000e+00   7.8711438e-05   5.9970674e-05   2.1902917e-05   1.2810974e-04   1.3039840e-04  -6.4404849e-05  -7.2489852e-05  -7.9308375e-06   9.0187740e-05  -6.1312470e-05  -4.6861334e-05  -3.2638113e-04  -2.8065152e-04  -6.7682939e-05   2.4419617e-06  -6.5559228e-05  -3.9072966e-05  -1.3507630e-05  -2.4365506e-04  -2.0073320e-04  -2.2898963e-04  -7.1659985e-05  -2.2838322e-04  -2.0739237e-04  -1.0046960e-04   7.9213743e-05   3.6177387e-05  -1.9049517e-05   8.0223863e-05   1.2479165e-05   2.8523427e-05  -1.2855791e-04   3.8615003e-05  -1.9233407e-05   8.8223678e-06  -3.8763423e-04   1.4434910e-04   0.0000000e+00   1.3986485e-05   1.4603603e-05  -1.2371551e-04  -2.3344140e-04   6.7927382e-06  -2.2240544e-05   3.8365298e-06  -2.4038777e-05  -4.1787549e-06  -1.1468129e-05  -1.8196389e-05   2.2288322e-04   3.3537992e-04   4.9338347e-05  -2.5868311e-05  -5.0479769e-05  -3.7902804e-05   1.2585587e-05   1.1879822e-04   1.3393035e-04   7.1655770e-05  -2.4886351e-05  -1.7649810e-05  -1.6099638e-05  -4.4701631e-05  -8.2005825e-06  -1.7054129e-05  -1.0550195e-05   1.5968198e-05   4.6231832e-06  -4.2154496e-05  -4.4977812e-05  -1.3121762e-05   4.2606409e-05   1.3622223e-04   2.3671298e-04   5.5571224e-06   0.0000000e+00  -2.3113471e-05   2.6518834e-05   1.9534010e-05   7.8112843e-05   1.7138322e-04  -1.6057108e-04   1.5564293e-05  -1.0056099e-04  -1.2703968e-04  -1.5094158e-04  -1.2466876e-04  -2.2489664e-04   5.0709880e-05  -1.8544931e-04  -1.3055523e-04  -2.8499396e-04  -1.8422525e-04  -1.3646430e-04  -2.8821107e-05  -2.5429590e-04  -3.3681257e-04  -2.6180994e-04  -5.7559361e-05  -1.1904456e-04  -1.9681232e-04  -2.0858746e-04  -1.3986783e-04  -1.0807589e-04  -1.0879798e-04  -8.1613142e-05  -1.3454385e-04  -1.6148162e-04  -9.0175425e-05  -9.4019483e-05  -1.3848564e-04  -2.1953686e-04  -1.9494170e-04   0.0000000e+00  -1.5447268e-04  -8.9712323e-05  -1.8526335e-04  -1.0309287e-04  -1.1152421e-04  -3.5401824e-05  -2.6361732e-05  -6.8475670e-05  -2.9622583e-05  -5.5984614e-05  -4.5670575e-05  -3.7323640e-04  -2.1241303e-04  -1.1075121e-04  -4.6935652e-05  -1.0644882e-04  -7.3214744e-05  -8.3358019e-05  -2.6450610e-04  -2.4814086e-04  -2.0228905e-04  -1.0696613e-04  -3.9818455e-05  -4.1638127e-05  -4.9021631e-05  -9.3608492e-05  -4.7874574e-05  -4.0581290e-05  -3.1504654e-05  -2.5376281e-05  -7.4723877e-05  -3.7285566e-05  -3.1113925e-05  -6.9271322e-05  -1.5194656e-04  -5.1271921e-04  -8.9785154e-05   0.0000000e+00  -3.9065712e-05  -5.3949894e-05  -1.2636575e-04  -2.7095538e-04  -1.7226053e-04  -1.2717421e-04  -1.3051487e-04   3.0425007e-05  -5.4415059e-05   7.7696881e-05  -5.1058064e-05  -1.6516102e-04  -6.7004819e-05   2.4757097e-05  -7.7879400e-05  -1.4502093e-04  -1.9153068e-04  -7.0269393e-05   4.0126652e-05  -1.3949384e-04  -1.2943137e-05  -9.8001104e-06  -1.3818819e-04  -1.1349319e-04   2.7085576e-05  -9.0727304e-05  -1.6287540e-05  -6.0312207e-05   1.4952690e-05   2.8391506e-05  -7.6523826e-05  -5.2605754e-05  -8.4384142e-05  -3.8408259e-05  -6.4228167e-05   1.2640579e-05  -9.5833608e-05   0.0000000e+00  -5.2411405e-06   1.8360184e-05  -2.3159955e-05  -1.1306231e-04  -4.5083815e-05  -8.2022496e-05  -9.6176293e-05  -1.2013362e-04  -1.0274419e-04  -5.0486465e-05  -7.8346528e-05  -1.7909248e-04   2.1982478e-05  -9.4571343e-05  -1.1211753e-04  -2.1789344e-04  -1.6181015e-04  -1.2737065e-04  -9.1362604e-05  -1.5413014e-04  -1.7866298e-04  -1.5403125e-04  -3.8705896e-05  -4.1757203e-05  -1.3827136e-04  -1.6856907e-04  -8.5583236e-05  -6.8711419e-05  -7.7831927e-05  -5.3851379e-05  -1.3155666e-04  -6.9995228e-05  -6.5341691e-05  -4.3132056e-05  -6.4364929e-05  -1.3501338e-04  -1.9169297e-04   0.0000000e+00  -1.3155304e-04  -3.4951177e-05  -7.5125314e-05  -1.7692238e-05  -5.3424788e-05   4.6020437e-05   4.0718142e-04  -4.4332429e-05   1.1306481e-04   6.5759086e-06  -1.6865475e-04  -3.4856579e-04  -1.3011973e-03  -3.1041759e-04  -1.5334048e-04  -1.6627138e-04  -3.0220420e-04  -4.7362798e-06  -6.4953630e-04  -4.5938320e-04  -3.7222705e-04   2.1441180e-05  -4.7736098e-05  -2.3201658e-04  -6.5960337e-04  -5.4211076e-04  -5.8030816e-05  -2.1242166e-04  -4.2771499e-05  -1.2257078e-05  -6.4274148e-04  -3.9076614e-04  -1.7492695e-04  -2.7297647e-05  -8.1443189e-04  -1.2955406e-03  -6.5145420e-04   0.0000000e+00  -3.3812977e-04   3.9502377e-05  -3.1315469e-05  -7.3032205e-04  -1.0183788e-03  -8.1389433e-05  -1.5235637e-04  -1.4140877e-04  -1.5633373e-04  -1.0854010e-04  -6.4907765e-05  -7.7551162e-04  -4.6827207e-04  -3.6481927e-04  -1.0321297e-04  -1.5009687e-04  -9.7886630e-05  -3.2569224e-04  -6.0546053e-04  -6.1764082e-04  -5.8297869e-04  -3.9781325e-04   6.5046468e-05   2.6830194e-05  -1.4344508e-04  -1.5417800e-04  -1.1644242e-04  -5.5523078e-05  -1.1787840e-04  -1.0511734e-04  -4.5203481e-05   1.2172362e-05  -2.5972310e-05  -2.5299546e-04  -2.2894802e-04  -1.0540205e-03  -1.3345213e-04   0.0000000e+00  -1.4433308e-04  -2.3067812e-04  -3.9995608e-04  -3.7148108e-04  -1.9822586e-04  -5.6019538e-05  -2.8135204e-04  -1.0822063e-04  -1.6840925e-04  -4.5744782e-05   5.8015667e-06  -5.0907117e-06  -4.1886884e-05  -4.7004386e-05  -3.1716486e-05  -8.1041289e-05   1.6955197e-05  -7.4183591e-05   1.7794082e-05   3.0943331e-05   4.8620118e-06   6.4424166e-05  -1.0065817e-04  -6.8865734e-05   1.8947851e-04   3.8140109e-05  -4.1264850e-05  -2.8917730e-05  -4.7375568e-05  -7.8680333e-05   1.0876313e-04   1.2260278e-04   1.6276653e-05  -6.3234470e-05  -9.1780712e-06  -5.6576880e-05   8.0576334e-05   0.0000000e+00   8.6728237e-05  -9.8756807e-05   2.1973741e-05  -7.9626614e-05   4.1456784e-05
   1.1201645e-04   1.4326131e-04   4.4510786e-05   8.3973437e-05   6.7183439e-05   5.3761481e-05   4.0622926e-04   1.3622077e-04   5.0704626e-05  -1.2502269e-05   1.0340738e-04   5.3215092e-05   6.6448057e-05   1.6295602e-04   1.9192364e-04   1.2789788e-04   4.3652316e-05   4.1297270e-05   4.6957556e-05   1.0633953e-04   1.5611083e-04   9.0233768e-05   7.7364223e-05   2.8333164e-05   4.6183485e-05   7.0482693e-05   1.3431202e-05   2.8353042e-05   1.1834704e-04   3.6818948e-05   4.2400513e-04   1.3175678e-04   0.0000000e+00   4.4343345e-05   2.8382327e-05   7.5978214e-05   1.1896001e-04   1.6258100e-04   1.1252843e-04   2.2395355e-04  -2.8128615e-05   1.4785479e-04  -5.1664385e-05   5.8062197e-05   3.6656000e-04  -3.1960659e-05   1.8632482e-05   1.1020052e-05   2.2949237e-04   1.2776741e-04  -6.0320433e-05  -1.7850442e-05   5.5290500e-05   1.3842885e-05   7.1878046e-06   2.0068346e-04   2.1620723e-04   1.5002572e-04   8.9422799e-05  -4.5472033e-05   3.4690320e-05   9.4075421e-05   1.0335160e-04   3.0229207e-05  -2.5545760e-05   8.1941607e-08   1.4194211e-04   6.4599286e-05  -5.7516796e-05   6.5887967e-05   0.0000000e+00   7.0145535e-05   4.8863430e-05   1.7514530e-05   1.3371890e-04   1.4001826e-04  -7.4549731e-05  -8.2225665e-05  -2.0256703e-06   1.0067407e-04  -6.6258949e-05  -5.6896653e-05  -3.5311261e-04  -3.0741477e-04  -7.0536875e-05   1.3131464e-05  -8.5165183e-05  -4.0495204e-05  -1.7602016e-06  -2.5847666e-04  -2.2489291e-04  -2.4584098e-04  -9.1003395e-05  -2.5130568e-04  -2.2569009e-04  -1.3106699e-04   6.6275054e-05   3.9889733e-05  -2.0959287e-05   8.3791847e-05   1.0246435e-05   1.7146958e-05  -1.4096058e-04   3.9852018e-05  -2.6805292e-05   7.1452159e-06  -4.1742968e-04   1.4414389e-04   0.0000000e+00  -3.2108880e-06   1.1417590e-05  -1.3486227e-04  -2.5642533e-04   1.1168397e-05  -2.6672399e-05  -4.8820876e-06  -2.4168136e-05  -7.0347864e-06  -1.4387011e-05  -2.1526598e-05   2.1145096e-04   3.5878042e-04   6.0403778e-05  -2.0209780e-05  -5.6698990e-05  -4.0800057e-05   2.0337630e-05   1.1628946e-04   1.2823378e-04   7.6744374e-05  -2.5118977e-05  -2.5608188e-05  -2.0381885e-05  -5.8568544e-05  -1.7040154e-05  -1.9322890e-05  -1.3182682e-05   1.9248985e-05   3.6757416e-06  -4.7180020e-05  -4.2851034e-05  -1.1002867e-05   4.0816244e-05   1.4644994e-04   2.2719026e-04   1.2291315e-06   0.0000000e+00  -2.5891865e-05   2.8900301e-05   1.8593570e-05   7.7849908e-05   1.8017108e-04  -1.7857741e-04   3.2878985e-06  -1.0693520e-04  -1.4418674e-04  -1.6223089e-04  -1.3839358e-04  -2.7906998e-04   6.6499981e-05  -1.9133075e-04  -1.3521470e-04  -3.1552659e-04  -2.0568810e-04  -1.3742630e-04  -3.4435649e-05  -2.8034387e-04  -3.5587530e-04  -2.7680104e-04  -7.4527030e-05  -1.4154744e-04  -2.2105406e-04  -2.2598790e-04  -1.5639966e-04  -1.2069655e-04  -1.2084254e-04  -9.3656650e-05  -1.4725559e-04  -1.7530102e-04  -9.9209707e-05  -1.1071205e-04  -1.5042547e-04  -2.7123425e-04  -2.1503738e-04   0.0000000e+00  -1.6820508e-04  -9.7376433e-05  -2.0001182e-04  -1.2045179e-04  -1.1674957e-04  -3.8364027e-05  -3.2456286e-05  -7.3187650e-05  -3.3451135e-05  -6.1044751e-05  -4.7982586e-05  -4.1179486e-04  -2.4098385e-04  -1.2042536e-04  -4.4699826e-05  -1.1409232e-04  -7.6132217e-05  -9.5625328e-05  -2.9423262e-04  -2.7296606e-04  -2.1954611e-04  -1.1449244e-04  -4.1136143e-05  -4.2025167e-05  -4.9326786e-05  -1.0063120e-04  -5.1883566e-05  -4.2435574e-05  -3.1486420e-05  -2.5469387e-05  -7.4698162e-05  -3.2672753e-05  -3.2298735e-05  -7.8730426e-05  -1.6277528e-04  -5.6357782e-04  -9.4094433e-05   0.0000000e+00  -4.1326478e-05  -6.0276195e-05  -1.3771646e-04  -3.0079741e-04  -1.9752756e-04  -1.2078951e-04  -1.4029947e-04   4.5975707e-05  -3.4835847e-05   1.0028594e-04  -4.0965716e-05  -1.7075475e-04  -5.4021426e-05   3.9975845e-05  -7.1254325e-05  -1.2495336e-04  -1.8399010e-04  -6.8568779e-05   4.3742076e-05  -1.4343877e-04  -4.4103330e-06   5.5822111e-06  -1.3194591e-04  -1.0413512e-04   5.6012596e-05  -7.1912150e-05  -4.1728506e-07  -5.0177989e-05   3.7806415e-05   4.4718428e-05  -5.3912329e-05  -3.5285671e-05  -7.5701070e-05  -2.7907350e-05  -8.3919284e-05   3.4707234e-05  -7.0469378e-05   0.0000000e+00   1.9041175e-05   3.5600742e-05  -1.9284152e-05  -1.0389521e-04  -3.4175583e-05  -8.1632986e-05  -1.0463452e-04  -1.1771423e-04  -1.0383397e-04  -4.8274657e-05  -7.6923661e-05  -2.2745677e-04   6.0436894e-05  -8.9053440e-05  -1.0172744e-04  -2.2073358e-04  -1.5762120e-04  -1.3346862e-04  -9.8083593e-05  -1.8338796e-04  -1.8211555e-04  -1.6249062e-04  -4.0982678e-05  -4.3026036e-05  -1.3876531e-04  -1.7418120e-04  -9.3051406e-05  -6.8091548e-05  -8.2175827e-05  -5.8871483e-05  -1.2520982e-04  -6.9441739e-05  -6.2744914e-05  -4.9988807e-05  -6.2490241e-05  -1.7573701e-04  -2.0198161e-04   0.0000000e+00  -1.3239294e-04  -3.2970811e-05  -8.6077187e-05  -1.3383466e-05  -3.8965868e-05   2.6745465e-05   4.2230359e-04  -4.8256077e-05   9.7521911e-05  -6.6614448e-06  -1.9180384e-04  -5.3213506e-04  -1.4312974e-03  -3.7243995e-04  -1.5605248e-04  -1.9156665e-04  -3.3060825e-04  -1.5207081e-05  -7.1936081e-04  -5.7537664e-04  -4.7444983e-04  -1.8132113e-05  -4.9052108e-05  -2.4971522e-04  -7.2181968e-04  -5.9929584e-04  -7.4358938e-05  -2.3884526e-04  -4.6229179e-05  -2.1249885e-05  -6.9203118e-04  -4.1329392e-04  -1.8545117e-04  -8.7823253e-05  -9.9525515e-04  -1.5772713e-03  -7.2491123e-04   0.0000000e+00  -3.7920358e-04   1.3830237e-05  -1.0376282e-04  -8.5858403e-04  -1.1008912e-03  -8.5711441e-05  -1.7320588e-04  -1.4338261e-04  -1.6346303e-04  -1.1114227e-04  -6.5999177e-05  -8.4058396e-04  -4.8611327e-04  -3.7235278e-04  -9.5877660e-05  -1.5371936e-04  -9.6385670e-05  -3.4107541e-04  -6.4458725e-04  -6.6600690e-04  -6.1488985e-04  -4.1443044e-04   6.4495708e-05   3.1233404e-05  -1.5254872e-04  -1.6584836e-04  -1.2025605e-04  -5.4805699e-05  -1.2133384e-04  -1.0982640e-04  -3.9864523e-05   3.4923245e-05  -2.0866065e-05  -2.6832662e-04  -2.5480459e-04  -1.1368831e-03  -1.3527458e-04   0.0000000e+00  -1.4644234e-04  -2.4468257e-04  -4.3139212e-04  -3.9384678e-04  -1.9979417e-04  -6.3488867e-05  -3.3016202e-04  -1.1070998e-04  -1.8635521e-04  -4.5387398e-05   1.2750939e-05  -8.6434526e-06  -3.6016005e-05  -3.9510353e-05  -2.4575208e-05  -8.9012169e-05   2.4724632e-05  -7.0788564e-05   1.4013647e-05   3.9180966e-05   1.0482220e-05   7.3955183e-05  -1.0895285e-04  -6.5637643e-05   2.1653126e-04   5.7379982e-05  -3.6294182e-05  -2.3598988e-05  -3.8367922e-05  -8.3337630e-05   1.3595936e-04   1.4951775e-04   2.2023676e-05  -6.6706128e-05  -4.2093779e-06  -7.0285346e-05   1.1087966e-04   0.0000000e+00   9.7774795e-05  -9.8004954e-05   1.9362386e-05  -8.7138561e-05   3.9824983e-05
   1.1304981e-04   1.5168651e-04   4.3810099e-05   8.5594268e-05   6.3638686e-05   4.9069483e-05   4.1624631e-04   1.6339964e-04   5.5644950e-05  -1.4454357e-05   9.5878250e-05   4.7873423e-05   7.3494522e-05   1.7223706e-04   1.9396852e-04   1.3095553e-04   3.2949893e-05   3.6418085e-05   4.1963609e-05   9.5221926e-05   1.5175457e-04   8.7165175e-05   7.5089504e-05   2.4436542e-05   4.3562979e-05   6.1428677e-05   5.4033585e-06   2.4735524e-05   1.1886464e-04   4.3097834e-05   4.3439920e-04   1.2310986e-04   0.0000000e+00   3.6476420e-05   2.2466530e-05   6.6139180e-05   1.1559875e-04   1.7882968e-04   1.0901129e-04   2.3395075e-04  -6.3023433e-05   1.6754114e-04  -7.3847822e-05   5.4845202e-05   4.0697653e-04  -3.9022216e-05   1.4999949e-05   2.5551896e-05   2.2777421e-04   1.4127687e-04  -4.3429246e-05   2.0696127e-06   3.4627773e-05   4.8971694e-06   1.0067888e-07   1.9710691e-04   2.1713568e-04   1.4723021e-04   7.6791813e-05  -7.5372845e-05   2.8046790e-05   7.8837065e-05   1.0028785e-04   2.6407547e-05  -3.0544441e-05  -3.8473427e-06   1.3638665e-04   8.4285301e-05  -7.7283487e-05   4.5589498e-05   0.0000000e+00   6.0575492e-05   3.5875400e-05   1.1233048e-05   1.3504348e-04   1.4595786e-04  -8.3189421e-05  -9.2713376e-05   4.9149676e-06   1.1050918e-04  -6.9501160e-05  -6.6186643e-05  -3.7508909e-04  -3.3325219e-04  -7.2452388e-05   2.4473751e-05  -1.0446520e-04  -4.0963027e-05   1.1875791e-05  -2.6805604e-04  -2.4405728e-04  -2.5840530e-04  -1.0943642e-04  -2.7041741e-04  -2.4095404e-04  -1.6286485e-04   5.0544346e-05   4.6453811e-05  -2.1241172e-05   8.8891595e-05   9.1954886e-06   3.9868828e-06  -1.5223942e-04   4.1468028e-05  -3.2826569e-05   4.1880630e-06  -4.3976745e-04   1.4297074e-04   0.0000000e+00  -1.9929372e-05   9.9568365e-06  -1.4329151e-04  -2.7562733e-04   1.5612298e-05  -3.0793129e-05  -1.4207243e-05  -2.3844067e-05  -9.8469417e-06  -1.6894093e-05  -2.4630776e-05   1.9728810e-04   3.7756136e-04   7.2204974e-05  -1.3427318e-05  -6.2139545e-05  -4.3262417e-05   2.8879435e-05   1.1437196e-04   1.2257284e-04   8.3367841e-05  -2.2802194e-05  -3.4404075e-05  -2.5299120e-05  -7.2917250e-05  -2.6231824e-05  -2.1233380e-05  -1.5792158e-05   2.2183320e-05   2.3120947e-06  -5.1621604e-05  -3.9068058e-05  -8.5042196e-06   3.8219966e-05   1.5571603e-04   2.1747027e-04  -3.6935008e-06   0.0000000e+00  -2.8601177e-05   3.1337190e-05   1.8167197e-05   7.7542488e-05   1.8517942e-04  -1.9574762e-04  -1.1159950e-05  -1.1204044e-04  -1.6081118e-04  -1.7176791e-04  -1.5078196e-04  -3.3465825e-04   8.4375123e-05  -1.9401839e-04  -1.3720971e-04  -3.4275930e-04  -2.2514524e-04  -1.3621641e-04  -4.0365661e-05  -3.0415557e-04  -3.6925078e-04  -2.8808128e-04  -9.0620033e-05  -1.6244421e-04  -2.4298823e-04  -2.4117900e-04  -1.7179762e-04  -1.3240970e-04  -1.3159827e-04  -1.0538620e-04  -1.5847949e-04  -1.8738802e-04  -1.0706484e-04  -1.2764502e-04  -1.6080850e-04  -3.2620834e-04  -2.3363826e-04   0.0000000e+00  -1.8014395e-04  -1.0411145e-04  -2.1344276e-04  -1.3841622e-04  -1.2011143e-04  -4.0552063e-05  -3.8630343e-05  -7.6678712e-05  -3.6842096e-05  -6.4656460e-05  -4.8966798e-05  -4.4601175e-04  -2.7221878e-04  -1.3031661e-04  -4.1462771e-05  -1.1931761e-04  -7.7208555e-05  -1.0849311e-04  -3.2277307e-04  -2.9479975e-04  -2.3532013e-04  -1.2026377e-04  -4.1022052e-05  -4.0718329e-05  -4.7797820e-05  -1.0580258e-04  -5.4614218e-05  -4.3272610e-05  -3.0907019e-05  -2.4709673e-05  -7.2604816e-05  -2.6386741e-05  -3.2805277e-05  -8.7753470e-05  -1.7141718e-04  -6.0865111e-04  -9.6296150e-05   0.0000000e+00  -4.2566237e-05  -6.5964795e-05  -1.4674318e-04  -3.2901983e-04  -2.2427762e-04  -1.1030495e-04  -1.4786562e-04   6.2382481e-05  -1.0604903e-05   1.2349034e-04  -2.8526767e-05  -1.7509225e-04  -3.4987142e-05   5.7755272e-05  -6.1349956e-05  -9.7886958e-05  -1.7025862e-04  -6.3984726e-05   4.6948678e-05  -1.4664033e-04   5.7035549e-06   2.4131523e-05  -1.2270851e-04  -9.2078625e-05   8.8896808e-05  -4.6516960e-05   1.7783021e-05  -3.6900874e-05   6.4306111e-05   6.2256990e-05  -2.5694367e-05  -1.4251991e-05  -6.3214079e-05  -1.5645640e-05  -1.0864932e-04   5.3486262e-05  -3.8222201e-05   0.0000000e+00   4.7456635e-05   5.4841348e-05  -1.7386924e-05  -8.9337650e-05  -1.9305825e-05  -8.0099868e-05  -1.1221796e-04  -1.1227438e-04  -1.0337246e-04  -4.5446046e-05  -7.4456094e-05  -2.8105479e-04   1.0314231e-04  -8.0424651e-05  -8.7695851e-05  -2.1953108e-04  -1.4973877e-04  -1.3790887e-04  -1.0448465e-04  -2.1395496e-04  -1.8196857e-04  -1.6855512e-04  -4.4030666e-05  -4.5026315e-05  -1.3766757e-04  -1.7804464e-04  -1.0011641e-04  -6.6741183e-05  -8.5331973e-05  -6.3780513e-05  -1.1626922e-04  -6.8959897e-05  -5.8723779e-05  -5.7338284e-05  -5.9499796e-05  -2.2243330e-04  -2.1050941e-04   0.0000000e+00  -1.3095942e-04  -2.9727162e-05  -9.7383154e-05  -9.1797845e-06  -2.2049193e-05   3.4163580e-06   4.2978927e-04  -5.2248933e-05   7.6020233e-05  -2.2158332e-05  -2.1418028e-04  -7.2857101e-04  -1.5574192e-03  -4.3161188e-04  -1.5662840e-04  -2.1745410e-04  -3.5524000e-04  -2.4203774e-05  -7.8523384e-04  -6.9675486e-04  -5.7944341e-04  -6.1455435e-05  -5.2264159e-05  -2.6528568e-04  -7.7728576e-04  -6.5017080e-04  -9.2099993e-05  -2.6415788e-04  -5.1558556e-05  -3.4453566e-05  -7.3244919e-04  -4.2842114e-04  -1.9407027e-04  -1.5621434e-04  -1.1738757e-03  -1.8676849e-03  -7.9281286e-04   0.0000000e+00  -4.1870028e-04  -1.9006800e-05  -1.8504074e-04  -9.9175012e-04  -1.1785536e-03  -8.9583493e-05  -1.9509420e-04  -1.4221612e-04  -1.6905397e-04  -1.1152634e-04  -6.5478348e-05  -8.9792368e-04  -5.0059689e-04  -3.7388996e-04  -8.5280040e-05  -1.5418166e-04  -9.2604886e-05  -3.5186499e-04  -6.7743215e-04  -7.0659630e-04  -6.3841341e-04  -4.2422842e-04   6.1854654e-05   3.5256827e-05  -1.6015226e-04  -1.7527098e-04  -1.2200036e-04  -5.2936439e-05  -1.2377866e-04  -1.1364829e-04  -3.2862401e-05   6.0353639e-05  -1.4798196e-05  -2.8144690e-04  -2.7983871e-04  -1.2069734e-03  -1.3438974e-04   0.0000000e+00  -1.4654132e-04  -2.5623690e-04  -4.5924026e-04  -4.1311847e-04  -2.0264232e-04  -7.0261413e-05  -3.7979112e-04  -1.1044712e-04  -2.0151848e-04  -4.3712187e-05   2.1665897e-05  -1.2611956e-05  -2.6807058e-05  -2.8754385e-05  -1.5272552e-05  -9.3951690e-05   3.4584904e-05  -6.4393005e-05   9.8126543e-06   4.6586240e-05   1.6421366e-05   8.3937379e-05  -1.1406851e-04  -5.8577183e-05   2.4413778e-04   7.8583301e-05  -2.8876445e-05  -1.6472964e-05  -2.6229689e-05  -8.6601777e-05   1.6529611e-04   1.7880871e-04   2.8668400e-05  -6.8402574e-05   2.1473352e-06  -8.3760475e-05   1.4428343e-04   0.0000000e+00   1.0992971e-04  -9.5082223e-05   1.5649453e-05  -9.3176410e-05   3.6550809e-05
   1.1212139e-04   1.5903501e-04   4.1433495e-05   8.5889168e-05   5.8459158e-05   4.2804456e-05   4.2220742e-04   1.8708640e-04   5.9251189e-05  -1.7105088e-05   8.5518255e-05   4.0539018e-05   7.9876223e-05   1.7968267e-04   1.9395463e-04   1.3180560e-04   2.0973687e-05   3.0599235e-05   3.5710934e-05   8.0879025e-05   1.4366464e-04   8.1977058e-05   7.0982700e-05   1.9247364e-05   4.0021581e-05   4.9637183e-05  -3.5452603e-06   1.9805277e-05   1.1765845e-04   4.8936974e-05   4.4045610e-04   1.1086720e-04   0.0000000e+00   2.6907224e-05   1.5574850e-05   5.5052863e-05   1.1036392e-04   1.9162137e-04   1.0403471e-04   2.3956811e-04  -1.0063964e-04   1.8701791e-04  -9.5485838e-05   5.0016160e-05   4.3831591e-04  -4.4219629e-05   5.9279027e-06   4.0647879e-05   2.2181663e-04   1.5377958e-04  -2.5348848e-05   2.3823973e-05   6.8318272e-06  -9.1332297e-06  -9.9526560e-06   1.8943266e-04   2.1249787e-04   1.4105449e-04   6.1749523e-05  -1.0662253e-04   2.0184623e-05   6.0905192e-05   9.5312098e-05   2.1963904e-05  -3.7800740e-05  -7.1858207e-06   1.2630399e-04   1.0339953e-04  -1.0233550e-04   2.2634953e-05   0.0000000e+00   5.0869532e-05   2.1793867e-05   2.7944878e-06   1.3182447e-04   1.4811388e-04  -8.9790257e-05  -1.0370257e-04   1.2776247e-05   1.1965877e-04  -7.0941064e-05  -7.4373012e-05  -3.9185466e-04  -3.5750936e-04  -7.3342557e-05   3.5955765e-05  -1.2277390e-04  -4.0609873e-05   2.7124168e-05  -2.7239391e-04  -2.5747624e-04  -2.6614940e-04  -1.2611484e-04  -2.8524625e-04  -2.5302590e-04  -1.9502541e-04   3.2473195e-05   5.6242048e-05  -1.9827826e-05   9.6044669e-05   9.8052794e-06  -1.0666059e-05  -1.6272521e-04   4.3600928e-05  -3.6683700e-05   5.1739335e-08  -4.5451646e-04   1.4116837e-04   0.0000000e+00  -3.5118476e-05   1.0837036e-05  -1.4867240e-04  -2.9032937e-04   1.9848535e-05  -3.4430788e-05  -2.3778538e-05  -2.3115524e-05  -1.2495397e-05  -1.8819295e-05  -2.7390594e-05   1.8150804e-04   3.9166147e-04   8.4391465e-05  -5.8714624e-06  -6.6567769e-05  -4.5253191e-05   3.7856676e-05   1.1369833e-04   1.1782181e-04   9.1646317e-05  -1.7801934e-05  -4.3694647e-05  -3.0736494e-05  -8.7278104e-05  -3.5479865e-05  -2.2696885e-05  -1.8307327e-05   2.4662716e-05   5.9602228e-07  -5.5427685e-05  -3.3895747e-05  -5.7705655e-06   3.5043386e-05   1.6403290e-04   2.0883263e-04  -9.1375190e-06   0.0000000e+00  -3.1148941e-05   3.3887482e-05   1.8524960e-05   7.7657180e-05   1.8643566e-04  -2.1167136e-04  -2.7361510e-05  -1.1582091e-04  -1.7647026e-04  -1.7943148e-04  -1.6140636e-04  -3.8981817e-04   1.0391506e-04  -1.9381283e-04  -1.3658383e-04  -3.6576289e-04  -2.4189369e-04  -1.3330025e-04  -4.6532014e-05  -3.2541354e-04  -3.7694075e-04  -2.9562091e-04  -1.0479819e-04  -1.8067211e-04  -2.6159576e-04  -2.5383484e-04  -1.8563256e-04  -1.4284655e-04  -1.4069992e-04  -1.1639053e-04  -1.6779104e-04  -1.9745742e-04  -1.1339210e-04  -1.4425771e-04  -1.6944586e-04  -3.8307671e-04  -2.5018310e-04   0.0000000e+00  -1.8987541e-04  -1.0970499e-04  -2.2526084e-04  -1.5631194e-04  -1.2161990e-04  -4.1813192e-05  -4.4724495e-05  -7.8921132e-05  -3.9616255e-05  -6.6592887e-05  -4.8515234e-05  -4.7538101e-04  -3.0605384e-04  -1.4054782e-04  -3.7511636e-05  -1.2188804e-04  -7.6392181e-05  -1.2180573e-04  -3.4982476e-04  -3.1326235e-04  -2.4952067e-04  -1.2414761e-04  -3.9445387e-05  -3.7723095e-05  -4.4268220e-05  -1.0882704e-04  -5.5844780e-05  -4.3007047e-05  -2.9781921e-05  -2.3092087e-05  -6.8462187e-05  -1.8636473e-05  -3.2589505e-05  -9.6097692e-05  -1.7790863e-04  -6.4742498e-04  -9.6161838e-05   0.0000000e+00  -4.2617867e-05  -7.0793418e-05  -1.5324157e-04  -3.5521529e-04  -2.5201719e-04  -9.6124138e-05  -1.5275590e-04   7.9229311e-05   1.7732774e-05   1.4673083e-04  -1.4129640e-05  -1.7910913e-04  -9.5813903e-06   7.8038113e-05  -4.8172467e-05  -6.4640653e-05  -1.5070179e-04  -5.6468494e-05   4.9714706e-05  -1.4966257e-04   1.7155811e-05   4.5480841e-05  -1.1132295e-04  -7.8174529e-05   1.2476824e-04  -1.4973996e-05   3.7665666e-05  -2.0937377e-05   9.3804793e-05   8.0369785e-05   7.2409477e-06   9.6518702e-06  -4.7345844e-05  -2.2451586e-06  -1.3831156e-04   6.6511269e-05   1.5593226e-07   0.0000000e+00   7.9388421e-05   7.5565168e-05  -1.8377184e-05  -6.9761744e-05  -5.2317288e-07  -7.7621607e-05  -1.1863753e-04  -1.0417998e-04  -1.0148260e-04  -4.2188614e-05  -7.1115139e-05  -3.3833744e-04   1.4845008e-04  -6.8898200e-05  -7.0596727e-05  -2.1445557e-04  -1.3851129e-04  -1.4064053e-04  -1.1045295e-04  -2.4482672e-04  -1.7825495e-04  -1.7190957e-04  -4.7861647e-05  -4.7728106e-05  -1.3513078e-04  -1.8021244e-04  -1.0659782e-04  -6.4819765e-05  -8.7125607e-05  -6.8477751e-05  -1.0524891e-04  -6.8668790e-05  -5.3506161e-05  -6.4959428e-05  -5.5735146e-05  -2.7398514e-04  -2.1715559e-04   0.0000000e+00  -1.2739064e-04  -2.5252435e-05  -1.0866114e-04  -5.2148020e-06  -3.3702942e-06  -2.3627940e-05   4.2983217e-04  -5.6826413e-05   4.8335331e-05  -3.9951046e-05  -2.3549149e-04  -9.3223636e-04  -1.6819310e-03  -4.8793781e-04  -1.5628986e-04  -2.4396126e-04  -3.7610596e-04  -3.2174323e-05  -8.4778042e-04  -8.2118212e-04  -6.8634562e-04  -1.0774607e-04  -5.7341031e-05  -2.7864545e-04  -8.2542719e-04  -6.9387013e-04  -1.1105513e-04  -2.8824037e-04  -5.9281811e-05  -5.1533469e-05  -7.6384818e-04  -4.3668125e-04  -2.0129835e-04  -2.3060449e-04  -1.3467267e-03  -2.1604443e-03  -8.5398294e-04   0.0000000e+00  -4.5612293e-04  -5.8443683e-05  -2.7289024e-04  -1.1283010e-03  -1.2532283e-03  -9.3035144e-05  -2.1777043e-04  -1.3829680e-04  -1.7328560e-04  -1.0970235e-04  -6.3252388e-05  -9.4568699e-04  -5.1256537e-04  -3.7028063e-04  -7.2264888e-05  -1.5140567e-04  -8.6736455e-05  -3.5859875e-04  -7.0362054e-04  -7.3800455e-04  -6.5339500e-04  -4.2718241e-04   5.7563565e-05   3.8955438e-05  -1.6579272e-04  -1.8212710e-04  -1.2156424e-04  -4.9974128e-05  -1.2537613e-04  -1.1666422e-04  -2.4409532e-05   8.7470892e-05  -8.0534904e-06  -2.9216209e-04  -3.0320956e-04  -1.2622345e-03  -1.3085513e-04   0.0000000e+00  -1.4482321e-04  -2.6513127e-04  -4.8282535e-04  -4.2890047e-04  -2.0779237e-04  -7.6093041e-05  -4.2897013e-04  -1.0744644e-04  -2.1337705e-04  -4.0799163e-05   3.2477879e-05  -1.6506311e-05  -1.4778620e-05  -1.5134658e-05  -4.0803449e-06  -9.5393706e-05   4.6539907e-05  -5.5181024e-05   5.6076966e-06   5.2918361e-05   2.2420178e-05   9.4152139e-05  -1.1557314e-04  -4.7612593e-05   2.7202085e-04   1.0142406e-04  -1.9152677e-05  -7.7550609e-06  -1.1283657e-05  -8.8347291e-05   1.9618181e-04   2.0966822e-04   3.6016163e-05  -6.8141476e-05   9.5293435e-06  -9.5827444e-05   1.8007831e-04   0.0000000e+00   1.2313673e-04  -9.0258307e-05   1.1212797e-05  -9.7418014e-05   3.1798831e-05
   1.0930698e-04   1.6531105e-04   3.7339092e-05   8.4838058e-05   5.1847111e-05   3.5141424e-05   4.2487937e-04   2.0620923e-04   6.1238184e-05  -2.0582893e-05   7.2600426e-05   3.1291835e-05   8.5386498e-05   1.8529190e-04   1.9232918e-04   1.3035394e-04   8.1113355e-06   2.4119037e-05   2.8440993e-05   6.3745865e-05   1.3209645e-04   7.4840172e-05   6.5171283e-05   1.2849734e-05   3.5737179e-05   3.5394908e-05  -1.3136044e-05   1.3642832e-05   1.1493473e-04   5.4141521e-05   4.4309395e-04   9.5372757e-05   0.0000000e+00   1.5876115e-05   7.9427007e-06   4.3260342e-05   1.0359444e-04   2.0044893e-04   9.7983320e-05   2.4057497e-04  -1.3926718e-04   2.0577606e-04  -1.1568185e-04   4.3699528e-05   4.5745666e-04  -4.6084886e-05  -9.3241961e-06   5.5536224e-05   2.1205348e-04   1.6487091e-04  -7.5388198e-06   4.5673941e-05  -2.8858584e-05  -2.9402801e-05  -2.3705059e-05   1.7855190e-04   2.0270414e-04   1.3167731e-04   4.4881207e-05  -1.3815042e-04   1.1342295e-05   4.1421003e-05   8.8978864e-05   1.6999631e-05  -4.7827369e-05  -9.6721398e-06   1.1201679e-04   1.2085233e-04  -1.3389162e-04  -1.9397670e-06   0.0000000e+00   4.1920183e-05   7.4929613e-06  -7.9861943e-06   1.2416566e-04   1.4670070e-04  -9.3913382e-05  -1.1493968e-04   2.1416374e-05   1.2816456e-04  -7.0610183e-05  -8.1184149e-05  -4.0324391e-04  -3.7951791e-04  -7.3179692e-05   4.7069048e-05  -1.3950355e-04  -3.9636692e-05   4.3660200e-05  -2.7184641e-04  -2.6485003e-04  -2.6879904e-04  -1.4035147e-04  -2.9559149e-04  -2.6195709e-04  -2.2674641e-04   1.2519144e-05   6.9382835e-05  -1.6788914e-05   1.0563207e-04   1.2463347e-05  -2.6489346e-05  -1.7289802e-04   4.6339820e-05  -3.7893182e-05  -5.0785529e-06  -4.6201442e-04   1.3899452e-04   0.0000000e+00  -4.7852791e-05   1.4547957e-05  -1.5082008e-04  -3.0003370e-04   2.3626008e-05  -3.7425342e-05  -3.3227119e-05  -2.2027827e-05  -1.4865108e-05  -2.0010775e-05  -2.9693539e-05   1.6525270e-04   4.0118231e-04   9.6579809e-05   2.0642275e-06  -6.9772714e-05  -4.6745205e-05   4.6881861e-05   1.1475813e-04   1.1475877e-04   1.0156795e-04  -1.0140223e-05  -5.3079230e-05  -3.6516609e-05  -1.0116291e-04  -4.4495300e-05  -2.3631254e-05  -2.0654996e-05   2.6625869e-05  -1.3720556e-06  -5.8580060e-05  -2.7675118e-05  -2.9493919e-06   3.1552579e-05   1.7144614e-04   2.0239349e-04  -1.5003712e-05   0.0000000e+00  -3.3425472e-05   3.6616205e-05   1.9910536e-05   7.8645581e-05   1.8415815e-04  -2.2595710e-04  -4.4794534e-05  -1.1825588e-04  -1.9074721e-04  -1.8516672e-04  -1.6990354e-04  -4.4272072e-04   1.2452518e-04  -1.9112634e-04  -1.3349808e-04  -3.8376907e-04  -2.5532825e-04  -1.2917818e-04  -5.2826572e-05  -3.4391975e-04  -3.7918992e-04  -2.9950129e-04  -1.1614703e-04  -1.9532672e-04  -2.7597971e-04  -2.6368196e-04  -1.9752670e-04  -1.5167877e-04  -1.4786599e-04  -1.2628467e-04  -1.7480594e-04  -2.0527423e-04  -1.1788872e-04  -1.5997894e-04  -1.7625902e-04  -4.4033319e-04  -2.6413417e-04   0.0000000e+00  -1.9705118e-04  -1.1398765e-04  -2.3517985e-04  -1.7341127e-04  -1.2137045e-04  -4.2011393e-05  -5.0586037e-05  -7.9938141e-05  -4.1604262e-05  -6.6700068e-05  -4.6582246e-05  -4.9975853e-04  -3.4228142e-04  -1.5120338e-04  -3.3158888e-05  -1.2168465e-04  -7.3718849e-05  -1.3537825e-04  -3.7519793e-04  -3.2819213e-04  -2.6211724e-04  -1.2609105e-04  -3.6465531e-05  -3.3142335e-05  -3.8635839e-05  -1.0948104e-04  -5.5414496e-05  -4.1592087e-05  -2.8123864e-05  -2.0653338e-05  -6.2361202e-05  -9.6863887e-06  -3.1626616e-05  -1.0356222e-04  -1.8243811e-04  -6.7983762e-04  -9.3530927e-05   0.0000000e+00  -4.1346992e-05  -7.4571229e-05  -1.5717614e-04  -3.7909100e-04  -2.8013988e-04  -7.8800062e-05  -1.5456152e-04   9.6146062e-05   4.9477977e-05   1.6948214e-04   1.7762694e-06  -1.8376753e-04   2.2262479e-05   1.0068142e-04  -3.1823663e-05  -2.6298164e-05  -1.2591026e-04  -4.6094187e-05   5.2062250e-05  -1.5303124e-04   2.9676798e-05   6.9136100e-05  -9.8712135e-05  -6.3314433e-05   1.6248180e-04   2.2001285e-05   5.8511295e-05  -2.8737937e-06   1.2553837e-04   9.8399861e-05   4.3782286e-05   3.5419216e-05  -2.8688880e-05   1.1634941e-05  -1.7245578e-04   7.1579866e-05   4.3658950e-05   0.0000000e+00   1.1409134e-04   9.7219737e-05  -2.2994374e-05  -4.5780348e-05   2.1971993e-05  -7.4376029e-05  -1.2357800e-04  -9.3899437e-05  -9.8310384e-05  -3.8647564e-05  -6.7035064e-05  -3.9735920e-04   1.9452292e-04  -5.4790331e-05  -5.1126119e-05  -2.0574711e-04  -1.2435126e-04  -1.4165336e-04  -1.1580481e-04  -2.7485893e-04  -1.7112320e-04  -1.7228734e-04  -5.2344976e-05  -5.0935126e-05  -1.3123097e-04  -1.8067852e-04  -1.1227077e-04  -6.2439333e-05  -8.7402300e-05  -7.2831106e-05  -9.2667459e-05  -6.8539312e-05  -4.7339563e-05  -7.2554538e-05  -5.1569074e-05  -3.2880082e-04  -2.2174887e-04   0.0000000e+00  -1.2185342e-04  -1.9612901e-05  -1.1945247e-04  -1.4785100e-06   1.6322940e-05  -5.3938735e-05   4.2293398e-04  -6.2586221e-05   1.4414468e-05  -6.0066421e-05  -2.5552228e-04  -1.1375546e-03  -1.8072307e-03  -5.4188711e-04  -1.5640064e-04  -2.7120981e-04  -3.9348102e-04  -3.9824964e-05  -9.0793990e-04  -9.4641951e-04  -7.9456659e-04  -1.5631041e-04  -6.4071874e-05  -2.8980596e-04  -8.6600032e-04  -7.2988664e-04  -1.3101932e-04  -3.1105968e-04  -6.9817746e-05  -7.1845810e-05  -7.8653497e-04  -4.3903803e-04  -2.0774202e-04  -3.0888972e-04  -1.5108895e-03  -2.4495329e-03  -9.0754368e-04   0.0000000e+00  -4.9105798e-04  -1.0355477e-04  -3.6485776e-04  -1.2666199e-03  -1.3268085e-03  -9.6084961e-05  -2.4089557e-04  -1.3219969e-04  -1.7638344e-04  -1.0577849e-04  -5.9294155e-05  -9.8220853e-04  -5.2279632e-04  -3.6264302e-04  -5.7887480e-05  -1.4545737e-04  -7.9071217e-05  -3.6207856e-04  -7.2292205e-04  -7.5910903e-04  -6.6002817e-04  -4.2356740e-04   5.2220993e-05   4.2439977e-05  -1.6896196e-04  -1.8619160e-04  -1.1889116e-04  -4.6003629e-05  -1.2625615e-04  -1.1894485e-04  -1.4780355e-05   1.1511535e-04  -9.4311934e-07  -3.0025709e-04  -3.2410724e-04  -1.3010462e-03  -1.2480790e-04   0.0000000e+00  -1.4151739e-04  -2.7120495e-04  -5.0158731e-04  -4.4079218e-04  -2.1594589e-04  -8.0800054e-05  -4.7640027e-04  -1.0187689e-04  -2.2161464e-04  -3.6811887e-05   4.4989303e-05  -1.9700289e-05  -7.1234028e-07   6.9906249e-07   8.5916429e-06  -9.3092632e-05   6.0457646e-05  -4.3513829e-05   1.8737697e-06   5.8100428e-05   2.8209035e-05   1.0432637e-04  -1.1324578e-04  -3.2910508e-05   2.9983867e-04   1.2552314e-04  -7.4117767e-06   2.2349253e-06   5.9576596e-06  -8.8515074e-05   2.2789269e-04   2.4105984e-04   4.3792433e-05  -6.5834561e-05   1.7447703e-05  -1.0522483e-04   2.1740676e-04   0.0000000e+00   1.3722123e-04  -8.3887209e-05   6.5305154e-06  -9.9629920e-05   2.5836860e-05
   1.0473286e-04   1.7051054e-04   3.1570491e-05   8.2439863e-05   4.4047871e-05   2.6299826e-05   4.2501694e-04   2.2005722e-04   6.1398855e-05  -2.4968911e-05   5.7477634e-05   2.0285022e-05   8.9830282e-05   1.8911578e-04   1.8953271e-04   1.2656399e-04  -5.2629709e-06   1.7273017e-05   2.0428890e-05   4.4345499e-05   1.1742588e-04   6.5984822e-05   5.7840328e-05   5.3758379e-06   3.0901970e-05   1.9090338e-05  -2.3074434e-05   6.3835685e-06   1.1092647e-04   5.8575305e-05   4.4323301e-04   7.7073633e-05   0.0000000e+00   3.6637432e-06  -1.7995871e-07   3.1275205e-05   9.5653936e-05   2.0502517e-04   9.1254905e-05   2.3693050e-04  -1.7706389e-04   2.2330825e-04  -1.3365112e-04   3.6098932e-05   4.6173899e-04  -4.3106305e-05  -3.1075163e-05   6.9498933e-05   1.9911326e-04   1.7422012e-04   8.4507892e-06   6.5740223e-05  -7.2939717e-05  -5.6861677e-05  -4.1793989e-05   1.6556214e-04   1.8849624e-04   1.1944161e-04   2.6829660e-05  -1.6887632e-04   1.8100703e-06   2.1645212e-05   8.1966382e-05   1.1645992e-05  -6.0949187e-05  -1.1083974e-05   9.4088102e-05   1.3564416e-04  -1.7284132e-04  -2.7010127e-05   0.0000000e+00   3.4585556e-05  -6.1157448e-06  -2.1158070e-05   1.1256692e-04   1.4224407e-04  -9.5249801e-05  -1.2621733e-04   3.0656571e-05   1.3613499e-04  -6.8674735e-05  -8.6449716e-05  -4.0937692e-04  -3.9864731e-04  -7.1998586e-05   5.7346513e-05  -1.5416914e-04  -3.8285154e-05   6.1109205e-05  -2.6709842e-04  -2.6634623e-04  -2.6637690e-04  -1.5165170e-04  -3.0150508e-04  -2.6800519e-04  -2.5730696e-04  -8.8858360e-06   8.5748282e-05  -1.2327960e-05   1.1785123e-04   1.7437337e-05  -4.3145763e-05  -1.8335652e-04   4.9727244e-05  -3.6130494e-05  -1.0945521e-05  -4.6303632e-04   1.3660710e-04   0.0000000e+00  -5.7366110e-05   2.1424510e-05  -1.4970415e-04  -3.0451552e-04   2.6732806e-05  -3.9630896e-05  -4.2191397e-05  -2.0615469e-05  -1.6848963e-05  -2.0344175e-05  -3.1436301e-05   1.4965396e-04   4.0636565e-04   1.0838083e-04   9.9736294e-06  -7.1568937e-05  -4.7715257e-05   5.5558595e-05   1.1786010e-04   1.1403539e-04   1.1300148e-04   1.1278258e-08  -6.2118475e-05  -4.2401245e-05  -1.1408184e-04  -5.3000089e-05  -2.3960305e-05  -2.2756386e-05   2.8065697e-05  -3.4540647e-06  -6.1086937e-05  -2.0784260e-05  -1.7666013e-07   2.8042967e-05   1.7803183e-04   1.9908507e-04  -2.1161144e-05   0.0000000e+00  -3.5302045e-05   3.9592612e-05   2.2530977e-05   8.0926206e-05   1.7872992e-04  -2.3826403e-04  -6.2857353e-05  -1.1936120e-04  -2.0326789e-04  -1.8898325e-04  -1.7599160e-04  -4.9166381e-04   1.4547108e-04  -1.8644390e-04  -1.2821688e-04  -3.9620839e-04  -2.6497868e-04  -1.2435511e-04  -5.9118443e-05  -3.5959295e-04  -3.7645088e-04  -2.9989499e-04  -1.2394300e-04  -2.0572263e-04  -2.8542477e-04  -2.7051448e-04  -2.0717845e-04  -1.5863594e-04  -1.5292020e-04  -1.3473441e-04  -1.7920894e-04  -2.1066251e-04  -1.2031887e-04  -1.7426707e-04  -1.8128301e-04  -4.9643087e-04  -2.7500276e-04   0.0000000e+00  -2.0141518e-04  -1.1684356e-04  -2.4293937e-04  -1.8899641e-04  -1.1954610e-04  -4.1037450e-05  -5.6075914e-05  -7.9794278e-05  -4.2656236e-05  -6.4906430e-05  -4.3187078e-05  -5.1937205e-04  -3.8053894e-04  -1.6231166e-04  -2.8718135e-05  -1.1871080e-04  -6.9305985e-05  -1.4900686e-04  -3.9882600e-04  -3.3965587e-04  -2.7314065e-04  -1.2612662e-04  -3.2228039e-05  -2.7170340e-05  -3.0873465e-05  -1.0762596e-04  -5.3233001e-05  -3.9022475e-05  -2.5938797e-05  -1.7468937e-05  -5.4462176e-05   1.5545003e-07  -2.9912414e-05  -1.1000020e-04  -1.8533724e-04  -7.0627761e-04  -8.8320895e-05   0.0000000e+00  -3.8664402e-05  -7.7149631e-05  -1.5868273e-04  -4.0048169e-04  -3.0796431e-04  -5.9019012e-05  -1.5294620e-04   1.1282398e-04   8.3803534e-05   1.9128245e-04   1.8705379e-05  -1.8993997e-04   6.0301825e-05   1.2544022e-04  -1.2508014e-05   1.5839633e-05  -9.6682797e-05  -3.3059889e-05   5.4066087e-05  -1.5718038e-04   4.2999300e-05   9.4497644e-05  -8.5807330e-05  -4.8362707e-05   2.0077843e-04   6.3431907e-05   7.9575711e-05   1.6600885e-05   1.5864647e-04   1.1571345e-04   8.2632010e-05   6.1934158e-05  -7.9689714e-06   2.5337835e-05  -2.1031114e-04   6.6947070e-05   9.1062762e-05   0.0000000e+00   1.5071222e-04   1.1924162e-04  -3.1734358e-05  -1.8198032e-05   4.7818188e-05  -7.0512797e-05  -1.2672109e-04  -8.1971941e-05  -9.4022778e-05  -3.4911767e-05  -6.2299559e-05  -4.5587706e-04   2.3946380e-04  -3.8511864e-05  -3.0061799e-05  -1.9369754e-04  -1.0772080e-04  -1.4098380e-04  -1.2029918e-04  -3.0283061e-04  -1.6082600e-04  -1.6948752e-04  -5.7205701e-05  -5.4296034e-05  -1.2597073e-04  -1.7937786e-04  -1.1688208e-04  -5.9656337e-05  -8.6045867e-05  -7.6685418e-05  -7.9003627e-05  -6.8400075e-05  -4.0477103e-05  -7.9754988e-05  -4.7368959e-05  -3.8487972e-04  -2.2407086e-04   0.0000000e+00  -1.1453434e-04  -1.2904535e-05  -1.2924527e-04   2.1973430e-06   3.6272748e-05  -8.6943556e-05   4.0986846e-04  -7.0153275e-05  -2.5578416e-05  -8.2493061e-05  -2.7412803e-04  -1.3393538e-03  -1.9354268e-03  -5.9421801e-04  -1.5833902e-04  -2.9935685e-04  -4.0785753e-04  -4.8014549e-05  -9.6681986e-04  -1.0704533e-03  -9.0372597e-04  -2.0654443e-04  -7.2111156e-05  -2.9886784e-04  -8.9906192e-04  -7.5808217e-04  -1.5179614e-04  -3.3264475e-04  -8.3444218e-05  -9.4516734e-05  -8.0118714e-04  -4.3677549e-04  -2.1403568e-04  -3.8885622e-04  -1.6641364e-03  -2.7295585e-03  -9.5292985e-04   0.0000000e+00  -5.2317497e-04  -1.5311259e-04  -4.5844008e-04  -1.4050402e-03  -1.4009796e-03  -9.8748234e-05  -2.6406922e-04  -1.2464696e-04  -1.7859418e-04  -9.9967844e-05  -5.3649950e-05  -1.0061136e-03  -5.3193513e-04  -3.5227604e-04  -4.3344580e-05  -1.3654706e-04  -6.9984389e-05  -3.6330031e-04  -7.3526483e-04  -7.6915180e-04  -6.5883403e-04  -4.1394843e-04   4.6535953e-05   4.5857543e-05  -1.6914406e-04  -1.8734199e-04  -1.1398691e-04  -4.1134474e-05  -1.2650083e-04  -1.2053524e-04  -4.2923565e-06   1.4202782e-04   6.2144040e-06  -3.0549860e-04  -3.4180376e-04  -1.3223176e-03  -1.1645218e-04   0.0000000e+00  -1.3687089e-04  -2.7435400e-04  -5.1511825e-04  -4.4842249e-04  -2.2742015e-04  -8.4281007e-05  -5.2082238e-04  -9.4075497e-05  -2.2615337e-04  -3.1983278e-05   5.8874512e-05  -2.1478547e-05   1.4403411e-05   1.7881346e-05   2.2217191e-05  -8.7051149e-05   7.6059911e-05  -2.9914650e-05  -9.0073540e-07   6.2233037e-05   3.3517665e-05   1.1414618e-04  -1.0709962e-04  -1.4877524e-05   3.2717972e-04   1.5044283e-04   5.9175303e-06   1.3078404e-05   2.4816876e-05  -8.7134052e-05   2.5959846e-04   2.7177418e-04   5.1666043e-05  -6.1505319e-05   2.5318892e-05  -1.1072261e-04   2.5529041e-04   0.0000000e+00   1.5188258e-04  -7.6389430e-05   2.1464508e-06  -9.9690017e-05   1.9021398e-05
   9.8570369e-05   1.7461371e-04   2.4257155e-05   7.8713309e-05   3.5337524e-05   1.6535128e-05   4.2328427e-04   2.2832521e-04   5.9620314e-05  -3.0283974e-05   4.0566256e-05   7.7437821e-06   9.3033275e-05   1.9123958e-04   1.8595807e-04   1.2046514e-04  -1.8803662e-05   1.0357752e-05   1.1972075e-05   2.3268100e-05   1.0013022e-04   5.5688761e-05   4.9223200e-05  -2.9966305e-06   2.5711804e-05   1.1993108e-06  -3.3062653e-05  -1.7886126e-06   1.0587753e-04   6.2168589e-05   4.4170033e-04   5.6498949e-05   0.0000000e+00  -9.4196220e-06  -8.5383829e-06   1.9557725e-05   8.6911186e-05   2.0529231e-04   8.4240494e-05   2.2877867e-04  -2.1217918e-04   2.3912936e-04  -1.4875677e-04   2.7489840e-05   4.4924192e-04  -3.3856180e-05  -5.9157387e-05   8.1928508e-05   1.8379669e-04   1.8159756e-04   2.1098546e-05   8.2184214e-05  -1.2550336e-04  -9.2124344e-05  -6.4669982e-05   1.5168849e-04   1.7090221e-04   1.0484846e-04   8.2709521e-06  -1.9775876e-04  -8.0728859e-06   2.8771826e-06   7.5028393e-05   6.0818275e-06  -7.7242198e-05  -1.1251683e-05   7.3301505e-05   1.4696766e-04  -2.1953472e-04  -5.1422773e-05   0.0000000e+00   2.9628916e-05  -1.8140756e-05  -3.6591392e-05   9.7909095e-05   1.3553771e-04  -9.3654620e-05  -1.3740455e-04   4.0284278e-05   1.4373298e-04  -6.5398982e-05  -9.0113161e-05  -4.1067352e-04  -4.1439638e-04  -6.9910605e-05   6.6373560e-05  -1.6641634e-04  -3.6823603e-05   7.9045554e-05  -2.5909499e-04  -2.6260096e-04  -2.5919664e-04  -1.5974996e-04  -3.0328844e-04  -2.7160074e-04  -2.8608954e-04  -3.1359828e-05   1.0494432e-04  -6.7703838e-06   1.3269111e-04   2.4835662e-05  -6.0275652e-05  -1.9474004e-04   5.3743565e-05  -3.1265163e-05  -1.7258666e-05  -4.5870340e-04   1.3404308e-04   0.0000000e+00  -6.3116183e-05   3.1606139e-05  -1.4543890e-04  -3.0384011e-04   2.9022368e-05  -4.0920398e-05  -5.0330243e-05  -1.8894278e-05  -1.8349927e-05  -1.9727444e-05  -3.2525487e-05   1.3580358e-04   4.0758875e-04   1.1943472e-04   1.7463017e-05  -7.1801244e-05  -4.8143576e-05   6.3510545e-05   1.2312425e-04   1.1615213e-04   1.2571714e-04   1.2350633e-05  -7.0355354e-05  -4.8100388e-05  -1.2556177e-04  -6.0735044e-05  -2.3615913e-05  -2.4528616e-05   2.9028219e-05  -5.4827312e-06  -6.2973078e-05  -1.3604233e-05   2.4295378e-06   2.4827913e-05   1.8389056e-04   1.9963881e-04  -2.7443536e-05   0.0000000e+00  -3.6636531e-05   4.2886608e-05   2.6547598e-05   8.4861817e-05   1.7066369e-04  -2.4831952e-04  -8.0901057e-05  -1.1919137e-04  -2.1372894e-04  -1.9095567e-04  -1.7949333e-04  -5.3516585e-04   1.6591435e-04  -1.8028804e-04  -1.2109726e-04  -4.0274529e-04  -2.7053576e-04  -1.1929239e-04  -6.5255455e-05  -3.7245401e-04  -3.6934621e-04  -2.9704940e-04  -1.2770330e-04  -2.1143317e-04  -2.8944522e-04  -2.7419364e-04  -2.1437470e-04  -1.6352116e-04  -1.5580345e-04  -1.4147812e-04  -1.8077264e-04  -2.1351625e-04  -1.2052683e-04  -1.8664620e-04  -1.8465040e-04  -5.4986663e-04  -2.8238194e-04   0.0000000e+00  -2.0282461e-04  -1.1822535e-04  -2.4832789e-04  -2.0240325e-04  -1.1641540e-04  -3.8813131e-05  -6.1071122e-05  -7.8579969e-05  -4.2650741e-05  -6.1223422e-05  -3.8413661e-05  -5.3480645e-04  -4.2031317e-04  -1.7383531e-04  -2.4476297e-05  -1.1308532e-04  -6.3344721e-05  -1.6248703e-04  -4.2076688e-04  -3.4794464e-04  -2.8267436e-04  -1.2437079e-04  -2.6955004e-05  -2.0077239e-05  -2.1034702e-05  -1.0321853e-04  -4.9289981e-05  -3.5334579e-05  -2.3226659e-05  -1.3649735e-05  -4.4987667e-05   1.0554112e-05  -2.7464931e-05  -1.1533188e-04  -1.8706546e-04  -7.2755535e-04  -8.0536922e-05   0.0000000e+00  -3.4532530e-05  -7.8434646e-05  -1.5806381e-04  -4.1935442e-04  -3.3478351e-04  -3.7545089e-05  -1.4766889e-04   1.2901977e-04   1.1978132e-04   2.1174711e-04   3.6144879e-05  -1.9832174e-04   1.0397152e-04   1.5195166e-04   9.4443272e-06   6.0313790e-05  -6.3991681e-05  -1.7688290e-05   5.5856535e-05  -1.6240253e-04   5.6864699e-05   1.2088647e-04  -7.3476027e-05  -3.4102955e-05   2.3834032e-04   1.0812036e-04   1.0012878e-04   3.6735422e-05   1.9222671e-04   1.3173028e-04   1.2238376e-04   8.8035284e-05   1.3990507e-05   3.8261642e-05  -2.5084947e-04   5.1484375e-05   1.4097517e-04   0.0000000e+00   1.8833032e-04   1.4108123e-04  -4.4800048e-05   1.2039761e-05   7.6492203e-05  -6.6133614e-05  -1.2774695e-04  -6.8969654e-05  -8.8800046e-05  -3.1011482e-05  -5.6940779e-05  -5.1146693e-04   2.8145439e-04  -2.0543128e-05  -8.2341323e-06  -1.7863875e-04  -8.9106684e-05  -1.3871964e-04  -1.2363297e-04  -3.2750425e-04  -1.4771541e-04  -1.6339704e-04  -6.2046721e-05  -5.7331686e-05  -1.1927915e-04  -1.7618489e-04  -1.2016421e-04  -5.6469822e-05  -8.2990215e-05  -7.9875787e-05  -6.4675918e-05  -6.7958073e-05  -3.3158547e-05  -8.6147550e-05  -4.3462396e-05  -4.3990332e-04  -2.2387606e-04   0.0000000e+00  -1.0563732e-04  -5.2515099e-06  -1.3750323e-04   6.1387197e-06   5.5762956e-05  -1.2199427e-04   3.9160150e-04  -8.0133517e-05  -7.1253763e-05  -1.0716674e-04  -2.9123606e-04  -1.5331685e-03  -2.0680643e-03  -6.4586020e-04  -1.6335443e-04  -3.2860920e-04  -4.1988760e-04  -5.7668988e-05  -1.0255808e-03  -1.1915780e-03  -1.0135619e-03  -2.5792899e-04  -8.1022276e-05  -3.0602537e-04  -9.2493546e-04  -7.7866059e-04  -1.7320204e-04  -3.5305884e-04  -1.0028142e-04  -1.1852539e-04  -8.0877681e-04  -4.3137086e-04  -2.2077841e-04  -4.6832080e-04  -1.8049344e-03  -2.9960304e-03  -9.8987434e-04   0.0000000e+00  -5.5223368e-04  -2.0567321e-04  -5.5123346e-04  -1.5418916e-03  -1.4770484e-03  -1.0102732e-04  -2.8683309e-04  -1.1645459e-04  -1.8016592e-04  -9.2575442e-05  -4.6444385e-05  -1.0164242e-03  -5.4042734e-04  -3.4056248e-04  -2.9878424e-05  -1.2503184e-04  -5.9920794e-05  -3.6336745e-04  -7.4075099e-04  -7.6781229e-04  -6.5062726e-04  -3.9915208e-04   4.1259612e-05   4.9370859e-05  -1.6585366e-04  -1.8557300e-04  -1.0692901e-04  -3.5492170e-05  -1.2613627e-04  -1.2145231e-04   6.7055549e-06   1.6693042e-04   1.3116828e-05  -3.0765694e-04  -3.5570795e-04  -1.3255431e-03  -1.0604004e-04   0.0000000e+00  -1.3113603e-04  -2.7453711e-04  -5.2320752e-04  -4.5148621e-04  -2.4211882e-04  -8.6530526e-05  -5.6109646e-04  -8.4509517e-05  -2.2715319e-04  -2.6617678e-05   7.3692203e-05  -2.1100460e-05   2.9462470e-05   3.5380904e-05   3.6170498e-05  -7.7528476e-05   9.2933410e-05  -1.5034378e-05  -2.2442783e-06   6.5584034e-05   3.8104116e-05   1.2328019e-04  -9.7393371e-05   5.8498259e-06   3.5356829e-04   1.7569656e-04   2.0278910e-05   2.4285154e-05   4.4481676e-05  -8.4318909e-05   2.9040581e-04   3.0049300e-04   5.9261544e-05  -5.5298009e-05   3.2519350e-05  -1.1124434e-04   2.9268073e-04   0.0000000e+00   1.6671422e-04  -6.8210566e-05  -1.3770571e-06  -9.7614373e-05   1.1769516e-05
   9.1027602e-05   1.7758268e-04   1.5608220e-05   7.3700167e-05   2.6005978e-05   6.1270089e-06   4.2019305e-04   2.3112208e-04   5.5892431e-05  -3.6485236e-05   2.2331471e-05  -6.0398531e-06   9.4851088e-05   1.9177284e-04   1.8191904e-04   1.1215694e-04  -3.2202958e-05   3.6559343e-06   3.3734771e-06   1.1423348e-06   8.0764932e-05   4.4267926e-05   3.9590829e-05  -1.2052516e-05   2.0355593e-05  -1.7738642e-05  -4.2814920e-05  -1.0647509e-05   1.0002626e-04   6.4924262e-05   4.3915309e-04   3.4236103e-05   0.0000000e+00  -2.3045040e-05  -1.6886574e-05   8.4965693e-06   7.7722078e-05   2.0141716e-04   7.7301528e-05   2.1643855e-04  -2.4288520e-04   2.5280158e-04  -1.6054639e-04   1.8207631e-05   4.1902075e-04  -1.7136694e-05  -9.2895981e-05   9.2368144e-05   1.6702845e-04   1.8690007e-04   2.9048228e-05   9.3407117e-05  -1.8611218e-04  -1.3537343e-04  -9.2511065e-05   1.3818801e-04   1.5115468e-04   8.8533523e-05  -1.0108071e-05  -2.2384114e-04  -1.7933803e-05  -1.3632555e-05   6.8943761e-05   5.2632186e-07  -9.6508823e-05  -1.0065959e-05   5.0620233e-05   1.5429371e-04  -2.7360587e-04  -7.4069305e-05   0.0000000e+00   2.7665814e-05  -2.7768352e-05  -5.3946746e-05   8.1404245e-05   1.2756624e-04  -8.9140311e-05  -1.4845134e-04   5.0044582e-05   1.5114867e-04  -6.1150318e-05  -9.2223021e-05  -4.0782630e-04  -4.2645142e-04  -6.7148687e-05   7.3828827e-05  -1.7602285e-04  -3.5511348e-05   9.6993923e-05  -2.4896103e-04  -2.5464815e-04  -2.4786326e-04  -1.6462709e-04  -3.0146380e-04  -2.7331381e-04  -3.1262929e-04  -5.4590186e-05   1.2630707e-04  -5.2777583e-07   1.4990860e-04   3.4583829e-05  -7.7506049e-05  -2.0765958e-04   5.8326971e-05  -2.3399606e-05  -2.3713037e-05  -4.5042889e-04   1.3123029e-04   0.0000000e+00  -6.4791126e-05   4.5031012e-05  -1.3826722e-04  -2.9838274e-04   3.0442562e-05  -4.1187509e-05  -5.7334147e-05  -1.6861776e-05  -1.9282971e-05  -1.8104103e-05  -3.2879423e-05   1.2471017e-04   4.0535925e-04   1.2943692e-04   2.4180735e-05  -7.0347226e-05  -4.8008193e-05   7.0408400e-05   1.3049078e-04   1.2143942e-04   1.3941592e-04   2.6471707e-05  -7.7339985e-05  -5.3284669e-05  -1.3516736e-04  -6.7460505e-05  -2.2538714e-05  -2.5884502e-05   2.9611118e-05  -7.2692360e-06  -6.4265906e-05  -6.4844910e-06   4.7800689e-06   2.2226884e-05   1.8914248e-04   2.0456996e-04  -3.3651458e-05   0.0000000e+00  -3.7280734e-05   4.6563489e-05   3.2070922e-05   9.0743328e-05   1.6056446e-04  -2.5593822e-04  -9.8255737e-05  -1.1783623e-04  -2.2191101e-04  -1.9121787e-04  -1.8034144e-04  -5.7205009e-04   1.8497289e-04  -1.7318288e-04  -1.1256451e-04  -4.0329517e-04  -2.7187070e-04  -1.1438082e-04  -7.1069913e-05  -3.8261429e-04  -3.5862198e-04  -2.9127325e-04  -1.2721490e-04  -2.1231688e-04  -2.8781791e-04  -2.7466126e-04  -2.1900082e-04  -1.6622134e-04  -1.5657743e-04  -1.4634696e-04  -1.7937356e-04  -2.1380313e-04  -1.1845341e-04  -1.9672673e-04  -1.8658196e-04  -5.9925917e-04  -2.8597060e-04   0.0000000e+00  -2.0126026e-04  -1.1815648e-04  -2.5120301e-04  -2.1307419e-04  -1.1232144e-04  -3.5295268e-05  -6.5467895e-05  -7.6401590e-05  -4.1501387e-05  -5.5745540e-05  -3.2403333e-05  -5.4696566e-04  -4.6095146e-04  -1.8566359e-04  -2.0671207e-05  -1.0503613e-04  -5.6086671e-05  -1.7562678e-04  -4.4119728e-04  -3.5355658e-04  -2.9085157e-04  -1.2102159e-04  -2.0929822e-05  -1.2192305e-05  -9.2570261e-06  -9.6316309e-05  -4.3655680e-05  -3.0606101e-05  -1.9984563e-05  -9.3352970e-06  -3.4209378e-05   2.1164231e-05  -2.4325928e-05  -1.1955154e-04  -1.8818489e-04  -7.4484857e-04  -7.0276856e-05   0.0000000e+00  -2.8973786e-05  -7.8394542e-05  -1.5577002e-04  -4.3580925e-04  -3.5991230e-04  -1.5197549e-05  -1.3858763e-04   1.4455492e-04   1.5642816e-04   2.3057324e-04   5.3575433e-05  -2.0933961e-04   1.5236696e-04   1.7973941e-04   3.3580122e-05   1.0557732e-04  -2.8958235e-05  -4.0299933e-07   5.7622992e-05  -1.6882073e-04   7.1034181e-05   1.4757173e-04  -6.2472127e-05  -2.1191145e-05   2.7385327e-04   1.5468924e-04   1.1949225e-04   5.6751184e-05   2.2537173e-04   1.4596299e-04   1.6157483e-04   1.1256789e-04   3.6309932e-05   4.9894587e-05  -2.9284929e-04   2.4795730e-05   1.9189188e-04   0.0000000e+00   2.2598046e-04   1.6223104e-04  -6.2083505e-05   4.3909431e-05   1.0731988e-04  -6.1292592e-05  -1.2635849e-04  -5.5466140e-05  -8.2838787e-05  -2.6922403e-05  -5.0945137e-05  -5.6163848e-04   3.1889911e-04  -1.4105140e-06   1.3516892e-05  -1.6093104e-04  -6.9004429e-05  -1.3500692e-04  -1.2545622e-04  -3.4769480e-04  -1.3222080e-04  -1.5400178e-04  -6.6373763e-05  -5.9481580e-05  -1.1103674e-04  -1.7092520e-04  -1.2185602e-04  -5.2822515e-05  -7.8235156e-05  -8.2242513e-05  -5.0015018e-05  -6.6829727e-05  -2.5606631e-05  -9.1292875e-05  -4.0105613e-05  -4.9134240e-04  -2.2090649e-04   0.0000000e+00  -9.5380018e-05   3.2008159e-06  -1.4369093e-04   1.0803445e-05   7.4173290e-05  -1.5836549e-04   3.6921739e-04  -9.3057393e-05  -1.2199303e-04  -1.3395611e-04  -3.0682606e-04  -1.7154654e-03  -2.2059688e-03  -6.9773929e-04  -1.7246981e-04  -3.5916272e-04  -4.3030655e-04  -6.9669196e-05  -1.0853120e-03  -1.3084710e-03  -1.1238584e-03  -3.1001257e-04  -9.0349097e-05  -3.1154503e-04  -9.4414340e-04  -7.9210996e-04  -1.9507931e-04  -3.7236513e-04  -1.2029965e-04  -1.4279452e-04  -8.1047886e-04  -4.2435729e-04  -2.2848188e-04  -5.4525345e-04  -1.9324276e-03  -3.2455215e-03  -1.0184218e-03   0.0000000e+00  -5.7806918e-04  -2.5966393e-04  -6.4105405e-04  -1.6755607e-03  -1.5558035e-03  -1.0291202e-04  -3.0870277e-04  -1.0847090e-04  -1.8132161e-04  -8.3991377e-05  -3.7877770e-05  -1.0126490e-03  -5.4848079e-04  -3.2885039e-04  -1.8687824e-05  -1.1140310e-04  -4.9373493e-05  -3.6339907e-04  -7.3966555e-04  -7.5525011e-04  -6.3645112e-04  -3.8022574e-04   3.7121239e-05   5.3131932e-05  -1.5868552e-04  -1.8099448e-04  -9.7868086e-05  -2.9212354e-05  -1.2513068e-04  -1.2167778e-04   1.7862339e-05   1.8861462e-04   1.9493717e-05  -3.0651692e-04  -3.6539735e-04  -1.3108319e-03  -9.3854981e-05   0.0000000e+00  -1.2455748e-04  -2.7178390e-04  -5.2585970e-04  -4.4978028e-04  -2.5954175e-04  -8.7650623e-05  -5.9627005e-04  -7.3772412e-05  -2.2501065e-04  -2.1064463e-05   8.8906863e-05  -1.7860854e-05   4.3341982e-05   5.2074592e-05   4.9764079e-05  -6.5035221e-05   1.1053666e-04   3.8750174e-07  -1.7490702e-06   6.8557235e-05   4.1756246e-05   1.3140273e-04  -8.4631116e-05   2.8423857e-05   3.7847517e-04   2.0076796e-04   3.5021885e-05   3.5321885e-05   6.4054180e-05  -8.0273999e-05   3.1939439e-04   3.2586969e-04   6.6183241e-05  -4.7463618e-05   3.8433060e-05  -1.0598384e-04   3.2850375e-04   0.0000000e+00   1.8122019e-04  -5.9803626e-05  -3.5171873e-06  -9.3556637e-05   4.5301931e-06
   8.2341512e-05   1.7935982e-04   5.9001178e-06   6.7464727e-05   1.6343213e-05  -4.6313950e-06   4.1606907e-04   2.2893993e-04   5.0311924e-05  -4.3465801e-05   3.2683741e-06  -2.0716583e-05   9.5176989e-05   1.9083581e-04   1.7763454e-04   1.0181319e-04  -4.5196026e-05  -2.5769474e-06  -5.0720801e-06  -2.1389065e-05   5.9936395e-05   3.2060680e-05   2.9240035e-05  -2.1547623e-05   1.5007377e-05  -3.7144168e-05  -5.2068179e-05  -1.9936348e-05   9.3596565e-05   6.6916253e-05   4.3603697e-04   1.0906938e-05   0.0000000e+00  -3.6875394e-05  -2.4994378e-05  -1.6034232e-06   6.8415076e-05   1.9377219e-04   7.0747887e-05   2.0037843e-04  -2.6772443e-04   2.6395610e-04  -1.6877735e-04   8.6214211e-06   3.7126102e-04   7.8601906e-06  -1.3115762e-04   1.0054050e-04   1.4979262e-04   1.9015726e-04   3.1238433e-05   9.8237942e-05  -2.5371567e-04  -1.8626924e-04  -1.2515658e-04   1.2625513e-04   1.3059577e-04   7.1230212e-05  -2.7643499e-05  -2.4628923e-04  -2.7384750e-05  -2.6762512e-05   6.4449137e-05  -4.7672909e-06  -1.1828566e-04  -7.4918798e-06   2.7144075e-05   1.5744334e-04  -3.3387787e-04  -9.3950917e-05   0.0000000e+00   2.9123118e-05  -3.4315565e-05  -7.2662433e-05   6.4514870e-05   1.1941599e-04  -8.1877828e-05  -1.5940984e-04   5.9638638e-05   1.5857695e-04  -5.6347713e-05  -9.2940088e-05  -4.0176557e-04  -4.3472316e-04  -6.4029514e-05   7.9465613e-05  -1.8290512e-04  -3.4587105e-05   1.1442994e-04  -2.3792400e-04  -2.4385172e-04  -2.3323393e-04  -1.6649070e-04  -2.9672558e-04  -2.7380133e-04  -3.3660102e-04  -7.8348516e-05   1.4894547e-04   5.9230045e-06   1.6902507e-04   4.6408425e-05  -9.4469950e-05  -2.2261169e-04   6.3363346e-05  -1.2850864e-05  -3.0026429e-05  -4.3981169e-04   1.2799004e-04   0.0000000e+00  -6.2328804e-05   6.1433705e-05  -1.2855167e-04  -2.8881595e-04   3.1024340e-05  -4.0351520e-05  -6.2938325e-05  -1.4497799e-05  -1.9577569e-05  -1.5458423e-05  -3.2431736e-05   1.1725781e-04   4.0031689e-04   1.3816745e-04   2.9841157e-05  -6.7121404e-05  -4.7284618e-05   7.5993854e-05   1.3974231e-04   1.3004787e-04   1.5376217e-04   4.1896019e-05  -8.2654199e-05  -5.7605129e-05  -1.4251478e-04  -7.2962851e-05  -2.0680909e-05  -2.6735720e-05   2.9954055e-05  -8.6133952e-06  -6.4990440e-05   2.8476200e-07   6.8193711e-06   2.0548245e-05   1.9392272e-04   2.1416452e-04  -3.9555992e-05   0.0000000e+00  -3.7088327e-05   5.0677855e-05   3.9156772e-05   9.8773025e-05   1.4909193e-04  -2.6103503e-04  -1.1426869e-04  -1.1541917e-04  -2.2769228e-04  -1.8994925e-04  -1.7858722e-04  -6.0149817e-04   2.0178844e-04  -1.6562453e-04  -1.0308990e-04  -3.9803216e-04  -2.6904057e-04  -1.0992095e-04  -7.6391082e-05  -3.9025737e-04  -3.4509226e-04  -2.8291812e-04  -1.2254130e-04  -2.0851685e-04  -2.8059080e-04  -2.7194087e-04  -2.2104706e-04  -1.6671569e-04  -1.5542279e-04  -1.4927225e-04  -1.7500631e-04  -2.1157142e-04  -1.1414137e-04  -2.0423680e-04  -1.8735389e-04  -6.4341539e-04  -2.8559631e-04   0.0000000e+00  -1.9683358e-04  -1.1673478e-04  -2.5150682e-04  -2.2059598e-04  -1.0767329e-04  -3.0480428e-05  -6.9182453e-05  -7.3368771e-05  -3.9163132e-05  -4.8643881e-05  -2.5349181e-05  -5.5700963e-04  -5.0169522e-04  -1.9761518e-04  -1.7472064e-05  -9.4883310e-05  -4.7824491e-05  -1.8826251e-04  -4.6039700e-04  -3.5716531e-04  -2.9784593e-04  -1.1634870e-04  -1.4477419e-05  -3.8788412e-06   4.2400402e-06  -8.7076884e-05  -3.6481934e-05  -2.4951847e-05  -1.6205778e-05  -4.6855780e-06  -2.2438995e-05   3.1647532e-05  -2.0557931e-05  -1.2272802e-04  -1.8932517e-04  -7.5961956e-04  -5.7732557e-05   0.0000000e+00  -2.2070967e-05  -7.7065666e-05  -1.5237093e-04  -4.5006870e-04  -3.8273387e-04   7.2032037e-06  -1.2566752e-04   1.5930271e-04   1.9273639e-04   2.4752481e-04   7.0481258e-05  -2.2309926e-04   2.0427488e-04   2.0820095e-04   5.9312027e-05   1.5006363e-04   7.1975254e-06   1.8277313e-05   5.9596349e-05  -1.7636816e-04   8.5293966e-05   1.7380798e-04  -5.3386866e-05  -1.0131449e-05   3.0606144e-04   2.0164738e-04   1.3707579e-04   7.5881168e-05   2.5720430e-04   1.5803432e-04   1.9876344e-04   1.3444667e-04   5.8099996e-05   5.9849664e-05  -3.3499681e-04  -1.2736181e-05   2.4225820e-04   0.0000000e+00   2.6268647e-04   1.8224037e-04  -8.3165752e-05   7.6377853e-05   1.3948935e-04  -5.5994955e-05  -1.2229228e-04  -4.2002910e-05  -7.6346390e-05  -2.2575630e-05  -4.4265995e-05  -6.0395328e-04   3.5055415e-04   1.8335254e-05   3.4382246e-05  -1.4095753e-04  -4.7903141e-05  -1.3004265e-04  -1.2538502e-04  -3.6231290e-04  -1.1482854e-04  -1.4140060e-04  -6.9637682e-05  -6.0152118e-05  -1.0109977e-04  -1.6339437e-04  -1.2172804e-04  -4.8613748e-05  -7.1853863e-05  -8.3645260e-05  -3.5259049e-05  -6.4590640e-05  -1.8015411e-05  -9.4760357e-05  -3.7457504e-05  -5.3657298e-04  -2.1492442e-04   0.0000000e+00  -8.3991996e-05   1.2284105e-05  -1.4730229e-04   1.6761891e-05   9.1016314e-05  -1.9530113e-04   3.4383862e-04  -1.0930867e-04  -1.7696030e-04  -1.6263608e-04  -3.2093194e-04  -1.8837940e-03  -2.3491419e-03  -7.5067345e-04  -1.8636966e-04  -3.9118648e-04  -4.3987706e-04  -8.4768321e-05  -1.1469275e-03  -1.4202214e-03  -1.2343855e-03  -3.6238471e-04  -9.9652955e-05  -3.1576013e-04  -9.5736519e-04  -7.9918082e-04  -2.1728670e-04  -3.9061882e-04  -1.4330239e-04  -1.6629761e-04  -8.0757063e-04  -4.1719692e-04  -2.3750991e-04  -6.1789312e-04  -2.0464030e-03  -3.4757803e-03  -1.0388795e-03   0.0000000e+00  -6.0060713e-04  -3.1349762e-04  -7.2605091e-04  -1.8045422e-03  -1.6374446e-03  -1.0437989e-04  -3.2919751e-04  -1.0151032e-04  -1.8224496e-04  -7.4665875e-05  -2.8220812e-05  -9.9484784e-04  -5.5602827e-04  -3.1835341e-04  -1.0821689e-05  -9.6262388e-05  -3.8858908e-05  -3.6443097e-04  -7.3248726e-04  -7.3213078e-04  -6.1750886e-04  -3.5837355e-04   3.4763626e-05   5.7262098e-05  -1.4735191e-04  -1.7382870e-04  -8.7034383e-05  -2.2432499e-05  -1.2340046e-04  -1.2116215e-04   2.8841899e-05   2.0603466e-04   2.5130611e-05  -3.0191128e-04  -3.7063615e-04  -1.2789213e-03  -8.0187573e-05   0.0000000e+00  -1.1735930e-04  -2.6620134e-04  -5.2330632e-04  -4.4324005e-04  -2.7883672e-04  -8.7838754e-05  -6.2563962e-04  -6.2535620e-05  -2.2033593e-04  -1.5701886e-05   1.0391306e-04  -1.1162229e-05   5.4996161e-05   6.6826254e-05   6.2285118e-05  -5.0306170e-05   1.2821828e-04   1.5573335e-05   8.8936482e-07   7.1648341e-05   4.4309671e-05   1.3821630e-04  -6.9527021e-05   5.1839200e-05   4.0132893e-04   2.2511898e-04   4.9443637e-05   4.5640461e-05   8.2597635e-05  -7.5283543e-05   3.4568039e-04   3.4662413e-04   7.2045440e-05  -3.8368492e-05   4.2515765e-05  -9.4510681e-05   3.6172693e-04   0.0000000e+00   1.9484088e-04  -5.1587296e-05  -3.8441670e-06  -8.7820782e-05  -2.2487511e-06
   7.2766196e-05   1.7987404e-04  -4.5402996e-06   6.0097142e-05   6.6249558e-06  -1.5446763e-05   4.1104354e-04   2.2258305e-04   4.3076608e-05  -5.1057267e-05  -1.6117674e-05  -3.5893188e-05   9.3949048e-05   1.8854900e-04   1.7322143e-04   8.9678199e-05  -5.7561507e-05  -8.1262483e-06  -1.3093694e-05  -4.3698687e-05   3.8275389e-05   1.9416694e-05   1.8479104e-05  -3.1217641e-05   9.8185660e-06  -5.6424794e-05  -6.0595331e-05  -2.9379474e-05   8.6787635e-05   6.8283878e-05   4.3256758e-04  -1.2859473e-05   0.0000000e+00  -5.0576199e-05  -3.2656117e-05  -1.0524188e-05   5.9281195e-05   1.8290243e-04   6.4818022e-05   1.8119282e-04  -2.8564059e-04   2.7231262e-04  -1.7342998e-04  -8.9089044e-07   3.0732716e-04   4.1415076e-05  -1.7244067e-04   1.0635040e-04   1.3304835e-04   1.9152138e-04   2.7018119e-05   9.6098210e-05  -3.2662634e-04  -2.4391789e-04  -1.6205952e-04   1.1691934e-04   1.1055335e-04   5.3717580e-05  -4.3716064e-05  -2.6442955e-04  -3.6043728e-05  -3.5599835e-05   6.2183709e-05  -9.5321957e-06  -1.4188614e-04  -3.5698138e-06   4.0430050e-06   1.5661684e-04  -3.9834385e-04  -1.1024137e-04   0.0000000e+00   3.4199178e-05  -3.7274223e-05  -9.1964222e-05   4.8848087e-05   1.1217667e-04  -7.2191651e-05  -1.7042733e-04   6.8729067e-05   1.6619958e-04  -5.1448054e-05  -9.2513201e-05  -3.9360359e-04  -4.3939468e-04  -6.0985478e-05   8.3152166e-05  -1.8710183e-04  -3.4244604e-05   1.3079453e-04  -2.2719474e-04  -2.3179692e-04  -2.1636337e-04  -1.6575687e-04  -2.8988676e-04  -2.7375229e-04  -3.5784841e-04  -1.0248537e-04   1.7177309e-04   1.2090703e-05   1.8936299e-04   5.9842142e-05  -1.1079552e-04  -2.3990655e-04   6.8707889e-05  -1.6411165e-07  -3.5955127e-05  -4.2855439e-04   1.2405392e-04   0.0000000e+00  -5.5919824e-05   8.0354200e-05  -1.1675723e-04  -2.7609497e-04   3.0910457e-05  -3.8359273e-05  -6.6927749e-05  -1.1769837e-05  -1.9179137e-05  -1.1817777e-05  -3.1133159e-05   1.1416286e-04   3.9322276e-04   1.4550230e-04   3.4244624e-05  -6.2077679e-05  -4.5946105e-05   8.0103324e-05   1.5053356e-04   1.4194570e-04   1.6841844e-04   5.8112832e-05  -8.5940099e-05  -6.0715109e-05  -1.4729214e-04  -7.7055413e-05  -1.8009755e-05  -2.6993846e-05   3.0228799e-05  -9.3178187e-06  -6.5157677e-05   6.4962869e-06   8.5268167e-06   2.0076606e-05   1.9837648e-04   2.2846908e-04  -4.4907506e-05   0.0000000e+00  -3.5924932e-05   5.5268497e-05   4.7803080e-05   1.0904707e-04   1.3692925e-04  -2.6363294e-04  -1.2833818e-04  -1.1209573e-04  -2.3105197e-04  -1.8737269e-04  -1.7439356e-04  -6.2307714e-04   2.1559834e-04  -1.5805004e-04  -9.3167602e-05  -3.8737427e-04  -2.6228388e-04  -1.0610876e-04  -8.1051559e-05  -3.9561907e-04  -3.2959556e-04  -2.7236756e-04  -1.1401073e-04  -2.0044261e-04  -2.6808495e-04  -2.6614035e-04  -2.2060502e-04  -1.6507459e-04  -1.5262136e-04  -1.5029071e-04  -1.6778546e-04  -2.0694859e-04  -1.0773181e-04  -2.0902719e-04  -1.8728050e-04  -6.8138135e-04  -2.8123104e-04   0.0000000e+00  -1.8978177e-04  -1.1412592e-04  -2.4927997e-04  -2.2472350e-04  -1.0292115e-04  -2.4407971e-05  -7.2150027e-05  -6.9586965e-05  -3.5635588e-05  -4.0157856e-05  -1.7483170e-05  -5.6626913e-04  -5.4172525e-04  -2.0944873e-04  -1.4964229e-05  -8.3021308e-05  -3.8875663e-05  -2.0027223e-04  -4.7872834e-04  -3.5957573e-04  -3.0386792e-04  -1.1068302e-04  -7.9417072e-06   4.4908576e-06   1.9162687e-05  -7.5754338e-05  -2.7995229e-05  -1.8518824e-05  -1.1887547e-05   1.2704592e-07  -1.0011461e-05   4.1689570e-05  -1.6245450e-05  -1.2500047e-04  -1.9113656e-04  -7.7351086e-04  -4.3186562e-05   0.0000000e+00  -1.3969146e-05  -7.4550698e-05  -1.4852008e-04  -4.6246146e-04  -4.0273838e-04   2.8860353e-05  -1.0898400e-04   1.7317686e-04   2.2771648e-04   2.6243837e-04   8.6362868e-05  -2.3934506e-04   2.5822107e-04   2.3663230e-04   8.5933142e-05   1.9224521e-04   4.3193177e-05   3.7770372e-05   6.2049462e-05  -1.8478162e-04   9.9458893e-05   1.9886124e-04  -4.6622440e-05  -1.2665881e-06   3.3382627e-04   2.4745569e-04   1.5240107e-04   9.3410606e-05   2.8692296e-04   1.6769403e-04   2.3258658e-04   1.5270337e-04   7.8507415e-05   6.7888158e-05  -3.7596775e-04  -5.9954575e-05   2.9052489e-04   0.0000000e+00   2.9749458e-04   2.0072955e-04  -1.0734099e-04   1.0846243e-04   1.7208113e-04  -5.0206607e-05  -1.1533384e-04  -2.9067085e-05  -6.9540565e-05  -1.7875340e-05  -3.6839893e-05  -6.3613315e-04   3.7562617e-04   3.8152195e-05   5.3611859e-05  -1.1912310e-04  -2.6271638e-05  -1.2407119e-04  -1.2301822e-04  -3.7041564e-04  -9.6055224e-05  -1.2580289e-04  -7.1285504e-05  -5.8782021e-05  -8.9330616e-05  -1.5338223e-04  -1.1960242e-04  -4.3715714e-05  -6.4000986e-05  -8.3982564e-05  -2.0554383e-05  -6.0826062e-05  -1.0548883e-05  -9.6150403e-05  -3.5559305e-05  -5.7300131e-04  -2.0573497e-04   0.0000000e+00  -7.1718888e-05   2.1814995e-05  -1.4788910e-04   2.4642579e-05   1.0596837e-04  -2.3203728e-04   3.1655963e-04  -1.2909221e-04  -2.3514091e-04  -1.9288327e-04  -3.3361727e-04  -2.0368327e-03  -2.4967959e-03  -8.0524709e-04  -2.0533790e-04  -4.2478948e-04  -4.4930769e-04  -1.0351555e-04  -1.2110888e-03  -1.5263299e-03  -1.3448346e-03  -4.1467550e-04  -1.0856068e-04  -3.1903684e-04  -9.6538201e-04  -8.0079449e-04  -2.3970543e-04  -4.0783532e-04  -1.6895024e-04  -1.8812816e-04  -8.0134934e-04  -4.1114748e-04  -2.4806132e-04  -6.8483801e-04  -2.1472263e-03  -3.6857386e-03  -1.0517971e-03   0.0000000e+00  -6.1983735e-04  -3.6565598e-04  -8.0477791e-04  -1.9275003e-03  -1.7215921e-03  -1.0539219e-04  -3.4785966e-04  -9.6296747e-05  -1.8305767e-04  -6.5090537e-05  -1.7802537e-05  -9.6367706e-04  -5.6272880e-04  -3.1004127e-04  -7.1015272e-06  -8.0295173e-05  -2.8891606e-05  -3.6732908e-04  -7.1988648e-04  -6.9961166e-04  -5.9507816e-04  -3.3488509e-04   3.4678939e-05   6.1828694e-05  -1.3172682e-04  -1.6439875e-04  -7.4730475e-05  -1.5285790e-05  -1.2082541e-04  -1.1983335e-04   3.9344856e-05   2.1839502e-04   2.9874802e-05  -2.9374367e-04  -3.7138184e-04  -1.2311487e-03  -6.5321964e-05   0.0000000e+00  -1.0974342e-04  -2.5797799e-04  -5.1600255e-04  -4.3196810e-04  -2.9888319e-04  -8.7391290e-05  -6.4879832e-04  -5.1519776e-05  -2.1390376e-04  -1.0913818e-05   1.1807425e-04  -5.8399079e-07   6.3576559e-05   7.8587025e-05   7.3033159e-05  -3.4256452e-05   1.4525924e-04   2.9768190e-05   5.8391515e-06   7.5388148e-05   4.5648316e-05   1.4348143e-04  -5.2989512e-05   7.4971026e-05   4.2155080e-04   2.4822332e-04   6.2813623e-05   5.4725594e-05   9.9205598e-05  -6.9697673e-05   3.6846569e-04   3.6163526e-04   7.6501208e-05  -2.8467580e-05   4.4343688e-05  -7.6861201e-05   3.9141262e-04   0.0000000e+00   2.0698989e-04  -4.3927492e-05  -2.0661413e-06  -8.0840737e-05  -8.1569669e-06
   6.2566944e-05   1.7904654e-04  -1.5353283e-05   5.1714613e-05  -2.8984544e-06  -2.6036435e-05   4.0507018e-04   2.1308051e-04   3.4472920e-05  -5.9040424e-05  -3.5329192e-05  -5.1151370e-05   9.1157089e-05   1.8502750e-04   1.6870133e-04   7.6067104e-05  -6.9119401e-05  -1.2828116e-05  -2.0458620e-05  -6.5194893e-05   1.6409470e-05   6.6834972e-06   7.6163021e-06  -4.0791369e-05   4.9142887e-06  -7.5003201e-05  -6.8212203e-05  -3.8695937e-05   7.9770221e-05   6.9218197e-05   4.2874891e-04  -3.6447773e-05   0.0000000e+00  -6.3825236e-05  -3.9695705e-05  -1.8131282e-05   5.0566711e-05   1.6948625e-04   5.9674143e-05   1.5956318e-04  -2.9609373e-04   2.7770023e-04  -1.7471253e-04  -9.9761865e-06   2.2971812e-04   8.3162340e-05  -2.1501306e-04   1.0986739e-04   1.1763851e-04   1.9123760e-04   1.6222034e-05   8.7107691e-05  -4.0256436e-04  -3.0688026e-04  -2.0228727e-04   1.1094435e-04   9.2216705e-05   3.6762227e-05  -5.7779959e-05  -2.7778295e-04  -4.3562753e-05  -3.9496696e-05   6.2635578e-05  -1.3522506e-05  -1.6647012e-04   1.5803955e-06  -1.7504709e-05   1.5239248e-04  -4.6424868e-04  -1.2233839e-04   0.0000000e+00   4.2854792e-05  -3.6345493e-05  -1.1089993e-04   3.6043176e-05   1.0685236e-04  -6.0537735e-05  -1.8173693e-04   7.6943492e-05   1.7415942e-04  -4.6886785e-05  -9.1260026e-05  -3.8458721e-04  -4.4090511e-04  -5.8516921e-05   8.4848104e-05  -1.8876348e-04  -3.4614775e-05   1.4550650e-04  -2.1788577e-04  -2.2016115e-04  -1.9843241e-04  -1.6300298e-04  -2.8181512e-04  -2.7382679e-04  -3.7635849e-04  -1.2693153e-04   1.9358233e-04   1.7495572e-05   2.1006467e-04   7.4237275e-05  -1.2613522e-04  -2.5960413e-04   7.4192259e-05   1.3906208e-05  -4.1317951e-05  -4.1837399e-04   1.1909242e-04   0.0000000e+00  -4.5971622e-05   1.0117114e-04  -1.0341148e-04  -2.6140226e-04   3.0338799e-05  -3.5186980e-05  -6.9149300e-05  -8.6417014e-06  -1.8048790e-05  -7.2530139e-06  -2.8956604e-05   1.1594082e-04   3.8492820e-04   1.5142654e-04   3.7286727e-05  -5.5215435e-05  -4.3964173e-05   8.2679585e-05   1.6243105e-04   1.5692292e-04   1.8308007e-04   7.4616472e-05  -8.6922942e-05  -6.2296621e-05  -1.4927265e-04  -7.9583710e-05  -1.4510739e-05  -2.6577765e-05   3.0621646e-05  -9.2015836e-06  -6.4760251e-05   1.2034236e-05   9.9182649e-06   2.1054191e-05   2.0265397e-04   2.4728971e-04  -4.9447130e-05   0.0000000e+00  -3.3680192e-05   6.0350159e-05   5.7952367e-05   1.2154896e-04   1.2475077e-04  -2.6386031e-04  -1.3994381e-04  -1.0804371e-04  -2.3207218e-04  -1.8373500e-04  -1.6802760e-04  -6.3673247e-04   2.2580131e-04  -1.5082461e-04  -8.3284321e-05  -3.7196326e-04  -2.5200913e-04  -1.0303289e-04  -8.4896687e-05  -3.9896908e-04  -3.1294685e-04  -2.6002892e-04  -1.0218227e-04  -1.8873763e-04  -2.5086620e-04  -2.5745318e-04  -2.1786309e-04  -1.6145530e-04  -1.4853993e-04  -1.4953639e-04  -1.5794265e-04  -2.0013955e-04  -9.9462899e-05  -2.1107993e-04  -1.8667955e-04  -7.1246865e-04  -2.7299651e-04   0.0000000e+00  -1.8045804e-04  -1.1055517e-04  -2.4466734e-04  -2.2539474e-04  -9.8533154e-05  -1.7161331e-05  -7.4325800e-05  -6.5151411e-05  -3.0964405e-05  -3.0581121e-05  -9.0637953e-06  -5.7614805e-04  -5.8022076e-04  -2.2088275e-04  -1.3144522e-05  -6.9893978e-05  -2.9559341e-05  -2.1158301e-04  -4.9660891e-04  -3.6166682e-04  -3.0915369e-04  -1.0440386e-04  -1.6599679e-06   1.2563453e-05   3.5148506e-05  -6.2687692e-05  -1.8486297e-05  -1.1480968e-05  -7.0316173e-06   4.9287200e-06   2.7273227e-06   5.1014667e-05  -1.1491652e-05  -1.2657028e-04  -1.9423857e-04  -7.8822343e-04  -2.7004204e-05   0.0000000e+00  -4.8684270e-06  -7.1015712e-05  -1.4490889e-04  -4.7339988e-04  -4.1955717e-04   4.9053117e-05  -8.8718353e-05   1.8610409e-04   2.6043598e-04   2.7520269e-04   1.0075066e-04  -2.5745457e-04   3.1254479e-04   2.6424676e-04   1.1262245e-04   2.3070733e-04   7.7740515e-05   5.7457935e-05   6.5277979e-05  -1.9360829e-04   1.1337207e-04   2.2204859e-04  -4.2378742e-05   5.2217283e-06   3.5617601e-04   2.9059130e-04   1.6511650e-04   1.0870279e-04   3.1382316e-04   1.7482401e-04   2.6181898e-04   1.6653332e-04   9.6754998e-05   7.3930390e-05  -4.1452849e-04  -1.1498883e-04   3.3521820e-04   0.0000000e+00   3.2950144e-04   2.1739988e-04  -1.3366734e-04   1.3929013e-04   2.0410611e-04  -4.3863776e-05  -1.0533565e-04  -1.7062108e-05  -6.2644276e-05  -1.2717463e-05  -2.8606834e-05  -6.5615553e-04   3.9382693e-04   5.7531164e-05   7.0552244e-05  -9.5852828e-05  -4.5557452e-06  -1.1737586e-04  -1.1795253e-04  -3.7123921e-04  -7.6422916e-05  -1.0752841e-04  -7.0809275e-05  -5.4893684e-05  -7.5640990e-05  -1.4070147e-04  -1.1537269e-04  -3.7991567e-05  -5.4911734e-05  -8.3201479e-05  -5.9645811e-06  -5.5187777e-05  -3.3440572e-06  -9.5127995e-05  -3.4323250e-05  -5.9818365e-04  -1.9322442e-04   0.0000000e+00  -5.8823811e-05   3.1594584e-05  -1.4508435e-04   3.5093277e-05   1.1889079e-04  -2.6785281e-04   2.8837769e-04  -1.5237507e-04  -2.9540412e-04  -2.2426914e-04  -3.4497074e-04  -2.1743788e-03  -2.6474310e-03  -8.6174094e-04  -2.2923358e-04  -4.5997022e-04  -4.5919568e-04  -1.2620566e-04  -1.2781573e-03  -1.6266742e-03  -1.4547942e-03  -4.6650852e-04  -1.1679488e-04  -3.2175742e-04  -9.6901353e-04  -7.9800407e-04  -2.6221565e-04  -4.2398535e-04  -1.9677611e-04  -2.0756177e-04  -7.9301750e-04  -4.0717998e-04  -2.6014696e-04  -7.4510527e-04  -2.2357630e-03  -3.8754479e-03  -1.0579185e-03   0.0000000e+00  -6.3582242e-04  -4.1479537e-04  -8.7623840e-04  -2.0432987e-03  -1.8073330e-03  -1.0590201e-04  -3.6429208e-04  -9.3404389e-05  -1.8381530e-04  -5.5766195e-05  -6.9950834e-06  -9.2040188e-04  -5.6798811e-04  -3.0456694e-04  -8.0371871e-06  -6.4236436e-05  -1.9953541e-05  -3.7271057e-04  -7.0271568e-04  -6.5931081e-04  -5.7042780e-04  -3.1105368e-04   3.7160503e-05   6.6832585e-05  -1.1187991e-04  -1.5311551e-04  -6.1326629e-05  -7.8962003e-06  -1.1726609e-04  -1.1760233e-04   4.9128338e-05   2.2522012e-04   3.3650305e-05  -2.8201941e-04  -3.6776472e-04  -1.1694194e-03  -4.9522755e-05   0.0000000e+00  -1.0188975e-04  -2.4738245e-04  -5.0460862e-04  -4.1625666e-04  -3.1840112e-04  -8.6683179e-05  -6.6567517e-04  -4.1435242e-05  -2.0660377e-04  -7.0619772e-06   1.3075754e-04   1.4057753e-05   6.8511341e-05   8.6480893e-05   8.1386562e-05  -1.7929114e-05   1.6090366e-04   4.2287661e-05   1.3099406e-05   8.0273494e-05   4.5718198e-05   1.4702968e-04  -3.6057449e-05   9.6655001e-05   4.3858776e-04   2.6958108e-04   7.4439818e-05   6.2118160e-05   1.1305364e-04  -6.3911209e-05   3.8708856e-04   3.7003365e-04   7.9261343e-05  -1.8284139e-05   4.3671124e-05  -5.3579359e-05   4.1677852e-04   0.0000000e+00   2.1709409e-04  -3.7110138e-05   1.9294581e-06  -7.3170263e-05  -1.2841447e-05
   5.2009199e-05   1.7680244e-04  -2.6166121e-05   4.2463206e-05  -1.2010097e-05  -3.6139108e-05   3.9796106e-04   2.0157935e-04   2.4862166e-05  -6.7156506e-05  -5.3896596e-05  -6.6064025e-05   8.6846733e-05   1.8037683e-04   1.6401981e-04   6.1358182e-05  -7.9723503e-05  -1.6577827e-05  -2.6984256e-05  -8.5342136e-05  -5.0604333e-06  -5.8053920e-06  -3.0537230e-06  -5.0000947e-05   3.9021361e-07  -9.2341470e-05  -7.4782404e-05  -4.7611519e-05   7.2684885e-05   6.9946548e-05   4.2440943e-04  -5.9280251e-05   0.0000000e+00  -7.6319839e-05  -4.5970508e-05  -2.4365325e-05   4.2470633e-05   1.5428344e-04   5.5385225e-05   1.3622691e-04  -2.9914739e-04   2.8005664e-04  -1.7305135e-04  -1.8333428e-05   1.4191150e-04   1.3202230e-04  -2.5705792e-04   1.1130186e-04   1.0420546e-04   1.8960910e-04  -8.0852567e-07   7.2120641e-05  -4.7876459e-04  -3.7322901e-04  -2.4455633e-04   1.0874862e-04   7.6512744e-05   2.1057524e-05  -6.9387124e-05  -2.8608243e-04  -4.9650157e-05  -3.8121877e-05   6.6102116e-05  -1.6541762e-05  -1.9112989e-04   7.7579814e-06  -3.6379492e-05   1.4567048e-04  -5.2825329e-04  -1.2990226e-04   0.0000000e+00   5.4804620e-05  -3.1462323e-05  -1.2839087e-04   2.7657409e-05   1.0428743e-04  -4.7457426e-05  -1.9362474e-04   8.3900934e-05   1.8254917e-04  -4.3061788e-05  -8.9541387e-05  -3.7600692e-04  -4.3993898e-04  -5.7180895e-05   8.4616612e-05  -1.8811802e-04  -3.5752866e-05   1.5797681e-04  -2.1091952e-04  -2.1059197e-04  -1.8066638e-04  -1.5890924e-04  -2.7336358e-04  -2.7459883e-04  -3.9224539e-04  -1.5168480e-04   2.1311583e-04   2.1723831e-05   2.3015927e-04   8.8794094e-05  -1.4013551e-04  -2.8146135e-04   7.9645665e-05   2.8446001e-05  -4.6002933e-05  -4.1092346e-04   1.1274898e-04   0.0000000e+00  -3.3085050e-05   1.2312656e-04  -8.9103848e-05  -2.4609288e-04   2.9635702e-05  -3.0846560e-05  -6.9509808e-05  -5.0834660e-06  -1.6165507e-05  -1.8786979e-06  -2.5898328e-05   1.2287716e-04   3.7633042e-04   1.5602767e-04   3.8964239e-05  -4.6581096e-05  -4.1310815e-05   8.3779437e-05   1.7495581e-04   1.7461074e-04   1.9750202e-04   9.0943175e-05  -8.5435625e-05  -6.2082999e-05  -1.4832606e-04  -8.0431234e-05  -1.0192445e-05  -2.5416510e-05   3.1318743e-05  -8.1137744e-06  -6.3775384e-05   1.6879642e-05   1.1038446e-05   2.3671132e-05   2.0690607e-04   2.7020306e-04  -5.2922383e-05   0.0000000e+00  -3.0279711e-05   6.5907621e-05   6.9493120e-05   1.3614397e-04   1.1319360e-04  -2.6194384e-04  -1.4867347e-04  -1.0346049e-04  -2.3092701e-04  -1.7929774e-04  -1.5984106e-04  -6.4275190e-04   2.3201188e-04  -1.4421774e-04  -7.3899056e-05  -3.5262025e-04  -2.3876349e-04  -1.0068289e-04  -8.7795581e-05  -4.0058473e-04  -2.9589051e-04  -2.4632046e-04  -8.7802898e-05  -1.7422622e-04  -2.2970601e-04  -2.4615277e-04  -2.1309186e-04  -1.5609222e-04  -1.4360098e-04  -1.4723514e-04  -1.4582249e-04  -1.9142043e-04  -8.9654259e-05  -2.1050264e-04  -1.8584667e-04  -7.3626062e-04  -2.6116660e-04   0.0000000e+00  -1.6931051e-04  -1.0629259e-04  -2.3791754e-04  -2.2272828e-04  -9.4962652e-05  -8.8652022e-06  -7.5683272e-05  -6.0144908e-05  -2.5238932e-05  -2.0246043e-05  -3.6317870e-07  -5.8800804e-04  -6.1641983e-04  -2.3161958e-04  -1.1925621e-05  -5.5973789e-05  -2.0181019e-05  -2.2217682e-04  -5.1447625e-04  -3.6432949e-04  -3.1396131e-04  -9.7921612e-05   4.0599907e-06   2.0029069e-05   5.1787071e-05  -4.8288100e-05  -8.2955815e-06  -4.0300689e-06  -1.6508588e-06   9.5541237e-06   1.5436627e-05   5.9397107e-05  -6.4137326e-06  -1.2768475e-04  -1.9916427e-04  -8.0538628e-04  -9.6214582e-06   0.0000000e+00   4.9824972e-06  -6.6680238e-05  -1.4222012e-04  -4.8334994e-04  -4.3298373e-04   6.7153602e-05  -6.5145658e-05   1.9800620e-04   2.9005217e-04   2.8574660e-04   1.1321294e-04  -2.7645236e-04   3.6549942e-04   2.9020254e-04   1.3847469e-04   2.6419665e-04   1.0958065e-04   7.6717938e-05   6.9603642e-05  -2.0222194e-04   1.2690076e-04   2.4276189e-04  -4.0664002e-05   9.2892942e-06   3.7233324e-04   3.2961670e-04   1.7500768e-04   1.2123278e-04   3.3732394e-04   1.7942725e-04   2.8542297e-04   1.7532219e-04   1.1217389e-04   7.8049009e-05  -4.4960876e-04  -1.7536368e-04   3.7498821e-04   0.0000000e+00   3.5788557e-04   2.3203516e-04  -1.6102711e-04   1.6814865e-04   2.3455694e-04  -3.6888331e-05  -9.2234517e-05  -6.3076990e-06  -5.5886280e-05  -7.0106193e-06  -1.9534298e-05  -6.6233992e-04   4.0538952e-04   7.6020986e-05   8.4668196e-05  -7.1596849e-05   1.6826890e-05  -1.1025987e-04  -1.0980203e-04  -3.6422656e-04  -5.6429510e-05  -8.6993932e-05  -6.7801453e-05  -4.8156128e-05  -6.0019451e-05  -1.2522020e-04  -1.0902582e-04  -3.1321420e-05  -4.4899329e-05  -8.1311037e-05   8.4993363e-06  -4.7448177e-05   3.4892377e-06  -9.1442548e-05  -3.3538442e-05  -6.0994056e-04  -1.7738106e-04   0.0000000e+00  -4.5587345e-05   4.1415751e-05  -1.3862727e-04   4.8724536e-05   1.2983356e-04  -3.0207874e-04   2.6014008e-04  -1.7886435e-04  -3.5653707e-04  -2.5627111e-04  -3.5508801e-04  -2.2972363e-03  -2.7990168e-03  -9.2010029e-04  -2.5749197e-04  -4.9661577e-04  -4.6996706e-04  -1.5285458e-04  -1.3481795e-03  -1.7214485e-03  -1.5637392e-03  -5.1751192e-04  -1.2418125e-04  -3.2427761e-04  -9.6906562e-04  -7.9190280e-04  -2.8468489e-04  -4.3899515e-04  -2.2621070e-04  -2.2411271e-04  -7.8364129e-04  -4.0589941e-04  -2.7358792e-04  -7.9816184e-04  -2.3132969e-03  -4.0459540e-03  -1.0581411e-03   0.0000000e+00  -6.4868351e-04  -4.5980571e-04  -9.3989745e-04  -2.1510423e-03  -1.8933303e-03  -1.0585725e-04  -3.7818613e-04  -9.3217667e-05  -1.8450252e-04  -4.7177780e-05   3.8030773e-06  -8.6687154e-04  -5.7100922e-04  -3.0221075e-04  -1.3786326e-05  -4.8832871e-05  -1.2474295e-05  -3.8089086e-04  -6.8199345e-04  -6.1323330e-04  -5.4473188e-04  -2.8809337e-04   4.2264734e-05   7.2192396e-05  -8.8102216e-05  -1.4045299e-04  -4.7248349e-05  -3.7326410e-07  -1.1258851e-04  -1.1438470e-04   5.8021534e-05   2.2640168e-04   3.6452258e-05  -2.6687358e-04  -3.6006412e-04  -1.0961490e-03  -3.3026433e-05   0.0000000e+00  -9.3962481e-05  -2.3477469e-04  -4.8995599e-04  -3.9659820e-04  -3.3607108e-04  -8.6148454e-05  -6.7654478e-04  -3.2936462e-05  -1.9937070e-04  -4.4667668e-06   1.4137618e-04   3.2664211e-05   6.9575697e-05   8.9886721e-05   8.6828131e-05  -2.4236391e-06   1.7440616e-04   5.2582690e-05   2.2489686e-05   8.6704702e-05   4.4512814e-05   1.4878691e-04  -1.9839136e-05   1.1575274e-04   4.5193098e-04   2.8874095e-04   8.3694600e-05   6.7453177e-05   1.2346532e-04  -5.8347913e-05   4.0107944e-04   3.7127461e-04   8.0120132e-05  -8.3859335e-06   4.0459900e-05  -2.5745780e-05   4.3724199e-04   0.0000000e+00   2.2463259e-04  -3.1335463e-05   8.0417391e-06  -6.5444011e-05  -1.6048500e-05
   4.1352195e-05   1.7308200e-04  -3.6611439e-05   3.2516927e-05  -2.0532337e-05  -4.5523621e-05   3.8943848e-04   1.8923600e-04   1.4657325e-05  -7.5120940e-05  -7.1390675e-05  -8.0216206e-05   8.1120961e-05   1.7469283e-04   1.5906879e-04   4.5981929e-05  -8.9255089e-05  -1.9333618e-05  -3.2545987e-05  -1.0367804e-04  -2.5581577e-05  -1.7740634e-05  -1.3258824e-05  -5.8594530e-05  -3.6871256e-06  -1.0796534e-04  -8.0219897e-05  -5.5872464e-05   6.5643647e-05   7.0709654e-05   4.1925627e-04  -8.0830653e-05   0.0000000e+00  -8.7785950e-05  -5.1371861e-05  -2.9228037e-05   3.5144826e-05   1.3808574e-04   5.1929868e-05   1.1194596e-04  -2.9549877e-04   2.7944370e-04  -1.6906153e-04  -2.5739536e-05   4.8135361e-05   1.8619648e-04  -2.9683318e-04   1.1095588e-04   9.3116248e-05   1.8695043e-04  -2.3260252e-05   5.2684435e-05  -5.5213765e-04  -4.4065201e-04  -2.8730737e-04   1.1034021e-04   6.4006830e-05   7.1744317e-06  -7.8209043e-05  -2.8928789e-04  -5.4094346e-05  -3.1487951e-05   7.2663787e-05  -1.8475125e-05  -2.1497468e-04   1.4690258e-05  -5.1586356e-05   1.3759806e-04  -5.8665430e-04  -1.3287450e-04   0.0000000e+00   6.9535272e-05  -2.2799646e-05  -1.4330194e-04   2.5060641e-05   1.0512294e-04  -3.3555807e-05  -2.0641410e-04   8.9215479e-05   1.9140289e-04  -4.0284210e-05  -8.7727672e-05  -3.6912480e-04  -4.3737636e-04  -5.7540705e-05   8.2606396e-05  -1.8544533e-04  -3.7623260e-05   1.6763826e-04  -2.0695015e-04  -2.0456409e-04  -1.6424612e-04  -1.5418679e-04  -2.6530750e-04  -2.7650329e-04  -4.0572568e-04  -1.7677522e-04   2.2915172e-04   2.4452202e-05   2.4862122e-04   1.0261122e-04  -1.5247348e-04  -3.0490750e-04   8.4908773e-05   4.2422563e-05  -4.9972310e-05  -4.0770854e-04   1.0467880e-04   0.0000000e+00  -1.8004183e-05   1.4538818e-04  -7.4443444e-05  -2.3162220e-04   2.9195172e-05  -2.5382466e-05  -6.7981552e-05  -1.0801908e-06  -1.3523369e-05   4.1515792e-06  -2.1983580e-05   1.3501869e-04   3.6831047e-04   1.5948777e-04   3.9368799e-05  -3.6275003e-05  -3.7966147e-05   8.3569540e-05   1.8762714e-04   1.9450604e-04   2.1151920e-04   1.0670260e-04  -8.1433427e-05  -5.9883517e-05  -1.4442827e-04  -7.9521616e-05  -5.0892421e-06  -2.3458370e-05   3.2486551e-05  -5.9476634e-06  -6.2164165e-05   2.1101664e-05   1.1959096e-05   2.8047965e-05   2.1127951e-04   2.9658501e-04  -5.5102400e-05   0.0000000e+00  -2.5696652e-05   7.1891219e-05   8.2264489e-05   1.5258131e-04   1.0283399e-04  -2.5819784e-04  -1.5424396e-04  -9.8551713e-05  -2.2786682e-04  -1.7432050e-04  -1.5025180e-04  -6.4170200e-04   2.3409847e-04  -1.3840730e-04  -6.5414445e-05  -3.3030416e-04  -2.2320826e-04  -9.8961211e-05  -8.9643779e-05  -4.0073519e-04  -2.7907054e-04  -2.3166823e-04  -7.1743525e-05  -1.5785233e-04  -2.0553480e-04  -2.3258668e-04  -2.0662968e-04  -1.4928196e-04  -1.3825942e-04  -1.4368161e-04  -1.3185737e-04  -1.8112487e-04  -7.8689730e-05  -2.0751136e-04  -1.8502541e-04  -7.5259280e-04  -2.4615211e-04   0.0000000e+00  -1.5685846e-04  -1.0163343e-04  -2.2936880e-04  -2.1700504e-04  -9.2606851e-05   3.1573191e-07  -7.6209345e-05  -5.4638387e-05  -1.8588073e-05  -9.5056702e-06   8.3484772e-06  -6.0305651e-04  -6.4967820e-04  -2.4137921e-04  -1.1144588e-05  -4.1733396e-05  -1.1014260e-05  -2.3208829e-04  -5.3275531e-04  -3.6840108e-04  -3.1856095e-04  -9.1659660e-05   8.9630099e-06   2.6644208e-05   6.8631513e-05  -3.3020892e-05   2.2056565e-06   3.6308457e-06   4.2280976e-06   1.3856257e-05   2.7791697e-05   6.6665389e-05  -1.1411864e-06  -1.2862063e-04  -2.0630833e-04  -8.2642739e-04   8.4711017e-06   0.0000000e+00   1.5297683e-05  -6.1806400e-05  -1.4108133e-04  -4.9279846e-04  -4.4298723e-04   8.2653793e-05  -3.8629190e-05   2.0878002e-04   3.1585122e-04   2.9403382e-04   1.2336330e-04  -2.9504494e-04   4.1536019e-04   3.1365171e-04   1.6253111e-04   2.9166627e-04   1.3754745e-04   9.4950734e-05   7.5355394e-05  -2.0985583e-04   1.3993006e-04   2.6049012e-04  -4.1306970e-05   1.1011952e-05   3.8175096e-04   3.6325453e-04   1.8199848e-04   1.3060583e-04   3.5697966e-04   1.8162069e-04   3.0258604e-04   1.7867026e-04   1.2424214e-04   8.0463155e-05  -4.8037420e-04  -2.3814254e-04   4.0866827e-04   0.0000000e+00   3.8193502e-04   2.4449636e-04  -1.8820105e-04   1.9451267e-04   2.6245182e-04  -2.9210425e-05  -7.6058387e-05   2.9772863e-06  -4.9493853e-05  -7.0199916e-07  -9.6361639e-06  -6.5342568e-04   4.1103637e-04   9.3252903e-05   9.5556541e-05  -4.6834479e-05   3.7480786e-05  -1.0302727e-04  -9.8219885e-05  -3.4904727e-04  -3.6516892e-05  -6.4701138e-05  -6.1999464e-05  -3.8429317e-05  -4.2568100e-05  -1.0689115e-04  -1.0064915e-04  -2.3623599e-05  -3.4342980e-05  -7.8390217e-05   2.2861803e-05  -3.7547849e-05   9.8581725e-06  -8.4948733e-05  -3.2875117e-05  -6.0647222e-04  -1.5832142e-04   0.0000000e+00  -3.2317287e-05   5.1067126e-05  -1.2837962e-04   6.6059679e-05   1.3902952e-04  -3.3414816e-04   2.3251594e-04  -2.0800734e-04  -4.1733262e-04  -2.8827838e-04  -3.6405996e-04  -2.4070546e-03  -2.9491864e-03  -9.7993189e-04  -2.8917438e-04  -5.3445473e-04  -4.8186157e-04  -1.8319142e-04  -1.4208883e-03  -1.8110852e-03  -1.6710295e-03  -5.6728139e-04  -1.3064791e-04  -3.2690697e-04  -9.6629843e-04  -7.8356374e-04  -3.0696286e-04  -4.5274271e-04  -2.5661360e-04  -2.3753468e-04  -7.7406700e-04  -4.0751596e-04  -2.8804505e-04  -8.4391650e-04  -2.3814177e-03  -4.1991254e-03  -1.0534503e-03   0.0000000e+00  -6.5858961e-04  -4.9986730e-04  -9.9565846e-04  -2.2500916e-03  -1.9779728e-03  -1.0520228e-04  -3.8934482e-04  -9.5904772e-05  -1.8503541e-04  -3.9763307e-05   1.4188163e-05  -8.0546999e-04  -5.7088173e-04  -3.0286174e-04  -2.4125954e-05  -3.4803886e-05  -6.8059407e-06  -3.9185651e-04  -6.5887274e-04  -5.6367094e-04  -5.1900460e-04  -2.6705915e-04   4.9793548e-05   7.7745839e-05  -6.0920532e-05  -1.2693342e-04  -3.2965606e-05   7.1866964e-06  -1.0669031e-04  -1.1011428e-04   6.5931498e-05   2.2222776e-04   3.8347327e-05  -2.4859287e-04  -3.4867208e-04  -1.0141969e-03  -1.6039748e-05   0.0000000e+00  -8.6117146e-05  -2.2059763e-04  -4.7300431e-04  -3.7368870e-04  -3.5066967e-04  -8.6247960e-05  -6.8202613e-04  -2.6580807e-05  -1.9311713e-04  -3.3881752e-06   1.4942549e-04   5.4819363e-05   6.6931708e-05   8.8514676e-05   8.9001314e-05   1.1175831e-05   1.8507876e-04   6.0277189e-05   3.3645479e-05   9.4925843e-05   4.2079268e-05   1.4877382e-04  -5.4504201e-06   1.3122928e-04   4.6118072e-04   3.0532622e-04   9.0063421e-05   7.0486623e-05   1.2995233e-04  -5.3421179e-05   4.1018377e-04   3.6519126e-04   7.8981498e-05   6.4810647e-07   3.4908447e-05   5.0375887e-06   4.5246466e-04   0.0000000e+00   2.2917313e-04  -2.6696433e-05   1.5954187e-05  -5.8347296e-05  -1.7622071e-05
   3.0842812e-05   1.6785320e-04  -4.6346202e-05   2.2077071e-05  -2.8327792e-05  -5.3995021e-05   3.7919463e-04   1.7711987e-04   4.2985848e-06  -8.2641711e-05  -8.7436975e-05  -9.3221977e-05   7.4136624e-05   1.6806532e-04   1.5371538e-04   3.0407467e-05  -9.7612938e-05  -2.1117052e-05  -3.7083017e-05  -1.1982267e-04  -4.4664653e-05  -2.8846160e-05  -2.2759977e-05  -6.6344948e-05  -7.2789424e-06  -1.2148075e-04  -8.4486598e-05  -6.3256706e-05   5.8734789e-05   7.1738850e-05   4.1293766e-04  -1.0063857e-04   0.0000000e+00  -9.7980892e-05  -5.5824495e-05  -3.2765720e-05   2.8697144e-05   1.2166114e-04   4.9200834e-05   8.7470531e-05  -2.8645188e-04   2.7602317e-04  -1.6350784e-04  -3.2065961e-05  -4.6905788e-05   2.4322822e-04  -3.3278991e-04   1.0918289e-04   8.4426342e-05   1.8354587e-04  -4.9926994e-05   3.0922683e-05  -6.1946529e-04  -5.0659210e-04  -3.2881766e-04   1.1529000e-04   5.4830475e-05  -4.4809307e-06  -8.4054410e-05  -2.8758723e-04  -5.6777226e-05  -1.9956439e-05   8.2176018e-05  -1.9309060e-05  -2.3720984e-04   2.2040086e-05  -6.2314699e-05   1.2945472e-04  -6.3564136e-04  -1.3148002e-04   0.0000000e+00   8.6330151e-05  -1.0764949e-05  -1.5452075e-04   2.9348214e-05   1.0976894e-04  -1.9443403e-05  -2.2043015e-04   9.2535342e-05   2.0070309e-04  -3.8758191e-05  -8.6168682e-05  -3.6510336e-04  -4.3423599e-04  -6.0132707e-05   7.9058756e-05  -1.8103764e-04  -4.0109710e-05   1.7397920e-04  -2.0632063e-04  -2.0327569e-04  -1.5021342e-04  -1.4951574e-04  -2.5827750e-04  -2.7978634e-04  -4.1706086e-04  -2.0225057e-04   2.4059415e-04   2.5487607e-05   2.6445659e-04   1.1473269e-04  -1.6283862e-04  -3.2905925e-04   8.9838773e-05   5.4741749e-05  -5.3256284e-05  -4.1003562e-04   9.4581171e-05   0.0000000e+00  -1.5538541e-06   1.6708827e-04  -6.0042954e-05  -2.1944472e-04   2.9442722e-05  -1.8875474e-05  -6.4598196e-05   3.3564147e-06  -1.0136588e-05   1.0648431e-05  -1.7267654e-05   1.5217490e-04   3.6166460e-04   1.6206604e-04   3.8676521e-05  -2.4451650e-05  -3.3922914e-05   8.2316633e-05   2.0000534e-04   2.1600968e-04   2.2505830e-04   1.2159864e-04  -7.5006141e-05  -5.5600449e-05  -1.3766749e-04  -7.6825954e-05   7.3456072e-07  -2.0674988e-05   3.4254530e-05  -2.6526511e-06  -5.9879980e-05   2.4844917e-05   1.2764938e-05   3.4229272e-05   2.1591393e-04   3.2565509e-04  -5.5796080e-05   0.0000000e+00  -1.9958405e-05   7.8212682e-05   9.6061672e-05   1.7050532e-04   9.4161293e-05  -2.5300102e-04  -1.5651045e-04  -9.3521370e-05  -2.2320076e-04  -1.6904807e-04  -1.3971420e-04  -6.3435125e-04   2.3219032e-04  -1.3347652e-04  -5.8161292e-05  -3.0605523e-04  -2.0607514e-04  -9.7702577e-05  -9.0367886e-05  -3.9965380e-04  -2.6300514e-04  -2.1649679e-04  -5.4938087e-05  -1.4061444e-04  -1.7937806e-04  -2.1716382e-04  -1.9885997e-04  -1.4136642e-04  -1.3296327e-04  -1.3922062e-04  -1.1655087e-04  -1.6963003e-04  -6.7000187e-05  -2.0241671e-04  -1.8439169e-04  -7.6151995e-04  -2.2848528e-04   0.0000000e+00  -1.4366078e-04  -9.6881703e-05  -2.1943554e-04  -2.0864341e-04  -9.1773320e-05   1.0182610e-05  -7.5904834e-05  -4.8693373e-05  -1.1172486e-05   1.2841639e-06   1.6814913e-05  -6.2224186e-04  -6.7951433e-04  -2.4992666e-04  -1.0583646e-05  -2.7627789e-05  -2.2885381e-06  -2.4139911e-04  -5.5181885e-04  -3.7460520e-04  -3.2322731e-04  -8.6038257e-05   1.2863947e-05   3.2245723e-05   8.5220607e-05  -1.7384209e-05   1.2635168e-05   1.1295199e-05   1.0561202e-05   1.7713639e-05   3.9493755e-05   7.2703157e-05   4.1902366e-06  -1.2966281e-04  -2.1589269e-04  -8.5245771e-04   2.6747401e-05   0.0000000e+00   2.5767836e-05  -5.6680681e-05  -1.4202021e-04  -5.0221820e-04  -4.4971138e-04   9.5187423e-05  -9.5989988e-06   2.1828170e-04   3.3726520e-04   3.0004862e-04   1.3087932e-04  -3.1168698e-04   4.6054882e-04   3.3378015e-04   1.8382126e-04   3.1230977e-04   1.6060214e-04   1.1161890e-04   8.2866273e-05  -2.1564432e-04   1.5236279e-04   2.7484004e-04  -4.4001372e-05   1.0547116e-05   3.8412257e-04   3.9043809e-04   1.8613379e-04   1.3656177e-04   3.7248829e-04   1.8161004e-04   3.1274872e-04   1.7639275e-04   1.3259262e-04   8.1501291e-05  -5.0626386e-04  -3.0009993e-04   4.3531407e-04   0.0000000e+00   4.0106577e-04   2.5472058e-04  -2.1394776e-04   2.1806536e-04   2.8690824e-04  -2.0778252e-05  -5.6941005e-05   1.0662474e-05  -4.3689025e-05   6.2039578e-06   1.0051197e-06  -6.2863019e-04   4.1191307e-04   1.0895780e-04   1.0295830e-04  -2.2078472e-05   5.7034879e-05  -9.5957457e-05  -8.2914009e-05  -3.2561217e-04  -1.7053567e-05  -4.1216895e-05  -5.3329698e-05  -2.5796499e-05  -2.3522765e-05  -8.5777928e-05  -9.0439142e-05  -1.4874068e-05  -2.3669135e-05  -7.4582611e-05   3.7139596e-05  -2.5632507e-05   1.5677704e-05  -7.5619072e-05  -3.1907541e-05  -5.8645037e-04  -1.3630761e-04   0.0000000e+00  -1.9340745e-05   6.0335722e-05  -1.1434642e-04   8.7486399e-05   1.4688114e-04  -3.6360879e-04   2.0598905e-04  -2.3898809e-04  -4.7663838e-04  -3.1961731e-04  -3.7196549e-04  -2.5061182e-03  -3.0954801e-03  -1.0405254e-03  -3.2303995e-04  -5.7306649e-04  -4.9489484e-04  -2.1669022e-04  -1.4957496e-03  -1.8961643e-03  -1.7759212e-03  -6.1539817e-04  -1.3622291e-04  -3.2988096e-04  -9.6138460e-04  -7.7399344e-04  -3.2885538e-04  -4.6506932e-04  -2.8730215e-04  -2.4783067e-04  -7.6490552e-04  -4.1184721e-04  -3.0303409e-04  -8.8269715e-04  -2.4419179e-03  -4.3374292e-03  -1.0448833e-03   0.0000000e+00  -6.6575218e-04  -5.3447178e-04  -1.0438224e-03  -2.3400687e-03  -2.0595280e-03  -1.0389135e-04  -3.9770097e-04  -1.0140408e-04  -1.8527904e-04  -3.3885918e-05   2.3772229e-05  -7.3902571e-04  -5.6669325e-04  -3.0603662e-04  -3.8462374e-05  -2.2808915e-05  -3.2027839e-06  -4.0526133e-04  -6.3459590e-04  -5.1308711e-04  -4.9403494e-04  -2.4877995e-04   5.9281656e-05   8.3252669e-05  -3.1100797e-05  -1.1309568e-04  -1.8965966e-05   1.4702360e-05  -9.9529198e-05  -1.0476198e-04   7.2847363e-05   2.1336752e-04   3.9460554e-05  -2.2762547e-04  -3.3405284e-04  -9.2678888e-04   1.2575002e-06   0.0000000e+00  -7.8516083e-05  -2.0537445e-04  -4.5478394e-04  -3.4841253e-04  -3.6119107e-04  -8.7451058e-05  -6.8305104e-04  -2.2774448e-05  -1.8865892e-04  -3.9982478e-06   1.5452153e-04   7.9785182e-05   6.1136044e-05   8.2438411e-05   8.7732681e-05   2.1880728e-05   1.9234091e-04   6.5211489e-05   4.6026026e-05   1.0496005e-04   3.8507093e-05   1.4711561e-04   6.0665331e-06   1.4222110e-04   4.6605322e-04   3.1905309e-04   9.3180828e-05   7.1113265e-05   1.3226230e-04  -4.9514133e-05   4.1439535e-04   3.5203720e-04   7.5854640e-05   8.2633202e-06   2.7447036e-05   3.6704637e-05   4.6236619e-04   0.0000000e+00   2.3040897e-04  -2.3202012e-05   2.5127128e-05  -5.2561913e-05  -1.7529273e-05
