   6.3872741e-05  -7.6778482e-06  -4.6322806e-06  -4.8650024e-05  -4.2181695e-05  -6.4184169e-05   9.3814337e-05  -5.2949377e-06  -5.7357434e-05  -1.1929050e-04  -1.2110151e-04  -1.0107214e-04  -2.7315347e-05   8.5401801e-05  -4.1049933e-05  -9.0498544e-05  -1.5590275e-04  -1.6486520e-04  -1.1651252e-04  -1.4377660e-04  -7.7654065e-05  -3.9089861e-05  -5.8447398e-05  -4.4755835e-05  -4.8953708e-05   4.7491499e-06   4.1970481e-05  -7.8744547e-06  -9.4579851e-05   0.0000000e+00  -9.2218189e-06   9.2159907e-06   9.5377605e-05  -7.5518680e-05  -9.9783460e-05   0.0000000e+00   0.0000000e+00   1.5214730e-05   2.0286706e-04   1.0700250e-04   6.5735996e-05   1.2076404e-04   3.2731479e-05   2.9523609e-05  -3.7415222e-05   2.3180197e-05   1.5949643e-04   7.1307109e-05   1.0231924e-05  -6.5797778e-05  -8.9761572e-05  -7.9748431e-05   9.6964447e-06   8.8417369e-05   5.4346290e-05   1.7930251e-05  -4.0482720e-05  -3.4491380e-05  -2.5136428e-05   4.1839221e-05   1.9723102e-05   4.4631216e-05   3.1946289e-05   9.4476566e-05   1.0393039e-04   8.0992474e-05  -7.5000851e-05   0.0000000e+00  -2.4798216e-05   3.3399274e-05   5.2117726e-05   2.9237285e-05   1.4309285e-05   0.0000000e+00   0.0000000e+00   1.5223201e-04   5.5818770e-05   8.9716132e-05  -2.2564384e-05   6.3495187e-05  -8.8753315e-05  -1.4478699e-04  -6.2342483e-05  -3.8577050e-05   6.3592044e-05  -6.9651117e-05  -2.3978766e-04  -3.1603807e-04  -1.1026916e-04  -5.1886097e-06  -1.6496607e-05  -8.6856162e-06  -1.3559708e-04  -1.2040371e-04  -2.8241645e-04  -3.7115172e-04  -2.4301171e-04   1.9069606e-06  -7.2718666e-05   2.9425180e-05  -5.5128073e-05  -8.6454163e-05   1.0542775e-05  -2.4659321e-05  -1.7378974e-04   0.0000000e+00  -4.3069837e-06  -1.3396764e-04  -1.5356065e-04  -1.1601294e-04  -1.1903204e-04   0.0000000e+00   0.0000000e+00   1.0541016e-05   2.9797881e-05   2.2305238e-06  -2.4216934e-06   2.9866616e-05   2.1372435e-05   1.8578830e-05  -4.2638014e-05  -5.9913881e-05   2.7974070e-05   2.2514792e-05   1.5495301e-05   9.8072141e-06  -7.8472234e-05  -2.3864052e-05  -9.6981337e-06   3.4490631e-05   2.2184234e-05   3.0635416e-05   1.9315022e-05   1.7598479e-05  -1.5403380e-05   2.7119708e-05   1.6722420e-06  -1.0773049e-05   6.1104618e-06   1.3784840e-05   8.1464077e-06   6.0233442e-06  -2.5345097e-05   0.0000000e+00  -5.9579216e-05  -8.9583804e-06  -5.6157225e-05   3.1790679e-05   4.0532109e-06   0.0000000e+00   0.0000000e+00  -5.7003026e-05   1.2021437e-04   3.5471227e-05  -3.9903825e-06  -1.9793052e-05   2.6017426e-05   4.9751089e-05   4.9876330e-05   1.4467091e-06   2.3407063e-05   2.5851636e-05   4.8818977e-05   5.7970989e-05   2.4885516e-05   2.6536406e-05   1.4317031e-05   3.4326948e-05   3.7794856e-05   8.4524087e-05   1.2712171e-04   1.1798754e-04   9.0083468e-05   3.4768774e-05   5.9057393e-05   1.6326920e-05   3.6051743e-05   2.0768973e-06  -2.3929997e-05   1.6126227e-05   7.9766321e-05   0.0000000e+00   7.0829186e-05  -1.4392613e-06  -1.9974629e-05   2.9636875e-05   6.1248024e-05   0.0000000e+00   0.0000000e+00  -2.2181716e-05   4.8279081e-05   3.7001428e-05   5.5087046e-05   4.9515881e-05   4.0465882e-05   2.5430918e-05   1.1719898e-04  -2.2100576e-05   3.8610025e-05   3.2517727e-05   2.3804055e-05   4.2927092e-05   8.8864633e-05   8.4033508e-05   7.5489865e-06   4.8107737e-05  -4.6828829e-06   1.9234966e-06   4.9926929e-05   4.6948194e-05   4.5824129e-05   5.0105801e-05   2.7227258e-05   5.5442584e-05   3.6111158e-05   3.5951858e-05   4.9050210e-05   7.0308159e-06   5.7801713e-06   0.0000000e+00   1.3693189e-04   5.6190224e-05   1.0227708e-04   2.4125504e-05   2.3215425e-05   0.0000000e+00   0.0000000e+00   4.4402951e-05  -1.9752437e-05  -7.5427262e-06  -3.9347816e-05  -3.6819470e-05   1.2654999e-05   4.6331571e-05  -2.6429993e-05  -4.9783100e-05  -3.0032601e-05   4.9870676e-05   6.2066476e-05   8.6711901e-05  -1.0371740e-04  -3.1516128e-05   2.5774133e-05   1.9721249e-06   6.0848116e-05   8.8590892e-05   9.7514814e-05   9.7194671e-05   6.6827906e-05   5.0021983e-06   2.8159818e-05  -4.0053500e-05  -6.4862244e-05   2.5941301e-05  -4.7979312e-06  -3.6233006e-05  -3.5017362e-05   0.0000000e+00   4.0372401e-05   1.2871979e-05  -4.6283677e-05   2.6283234e-05   1.5024609e-05   0.0000000e+00   0.0000000e+00  -6.1143666e-05  -3.7643784e-05  -5.8823980e-05  -2.9309627e-05  -9.0916164e-05  -3.7731851e-05  -2.8983709e-05  -7.0049606e-05  -2.3560543e-05  -4.8148280e-05  -1.9916648e-05  -3.5726939e-05  -1.2743638e-05  -6.3119317e-05  -3.9868376e-05   2.5383357e-05  -3.8135155e-05  -2.6801402e-05  -2.5313727e-05  -2.6232607e-05  -5.6281128e-05  -5.4264553e-05  -5.7742795e-05  -2.0126512e-05  -7.3571784e-05  -1.1310054e-04   6.9439352e-05   6.8663372e-05  -6.1749069e-05  -1.0513235e-04   0.0000000e+00  -5.9493848e-05   3.5898894e-05   1.2763056e-04  -2.6021536e-05  -4.7593095e-05   0.0000000e+00   0.0000000e+00  -1.7755762e-04   2.0671690e-04   1.6249162e-04   8.0856810e-05   1.6781851e-04   1.0598900e-04   1.5102837e-04   2.2307971e-04   8.7147120e-05   1.1922394e-04   1.6143197e-04   1.5876333e-04   1.8165712e-04   3.5162950e-05   1.3929967e-04   4.5535713e-05   1.4540574e-04   1.2757346e-04   1.8561522e-04   1.8364814e-04   2.3964761e-04   1.2788923e-04   1.1964903e-04   1.2757689e-04   1.6129207e-04   1.3808327e-04  -3.5468650e-05  -1.1187675e-04   1.1362784e-04   1.7698580e-04   0.0000000e+00   4.4927101e-04  -4.8680171e-06  -1.0800936e-04   1.2823509e-04   1.5361900e-04   0.0000000e+00   0.0000000e+00   1.2900920e-04  -2.5147808e-05  -2.3022594e-04  -2.0635763e-04  -2.6650426e-04  -1.5683601e-04  -8.4015773e-05  -1.2385589e-04  -8.5710775e-05  -4.4793132e-05  -2.3955419e-04  -1.6678046e-04  -1.7714065e-04  -2.7597433e-04  -4.5196279e-05  -2.3907329e-05  -1.7579246e-04  -1.1875437e-04  -1.9245096e-04  -1.7416363e-04  -2.7589767e-04  -2.6374063e-04  -2.4908763e-04  -1.3278323e-04  -4.1642286e-04  -3.1390007e-04  -1.8725181e-05   1.9371020e-05  -1.8413689e-04  -4.3648469e-04   0.0000000e+00  -1.3665156e-04  -9.3364305e-05  -1.4785249e-04  -1.3023695e-04  -2.9044799e-04   0.0000000e+00   0.0000000e+00  -3.8850586e-05
   6.1212277e-05  -1.7103326e-05  -1.8279799e-05  -6.8231016e-05  -5.5443459e-05  -7.7833299e-05   9.9260715e-05  -9.9509686e-06  -7.2535606e-05  -1.4612083e-04  -1.4516457e-04  -1.1955325e-04  -2.7829470e-05   9.6887476e-05  -5.0304114e-05  -1.1434683e-04  -1.8525014e-04  -1.9526677e-04  -1.3844540e-04  -1.6798046e-04  -9.9185012e-05  -5.0984435e-05  -7.2651113e-05  -6.2657365e-05  -6.5253440e-05  -4.0698263e-06   3.4812300e-05  -1.4983138e-05  -1.0997161e-04   0.0000000e+00  -1.5698855e-05   1.0909748e-06   8.6341764e-05  -8.8492563e-05  -1.1514710e-04   0.0000000e+00   0.0000000e+00   1.1710390e-05   2.0535979e-04   8.0800101e-05   4.8181152e-05   1.0052553e-04   8.5324366e-06   1.0171250e-05  -7.1494007e-05   1.3354386e-05   1.5714739e-04   4.2346574e-05  -2.1973931e-05  -1.0983538e-04  -1.1219061e-04  -1.0418958e-04  -2.5573340e-07   6.8857745e-05   3.4584782e-05  -2.1787528e-05  -8.2930889e-05  -9.0594703e-05  -5.7487433e-05   8.2405328e-06  -6.3188910e-07   1.2145189e-05  -2.9197920e-06   1.0691355e-04   1.2093118e-04   7.1316614e-05  -1.2184057e-04   0.0000000e+00  -8.0233413e-05   3.7054556e-05   7.2211000e-05   1.2416814e-05  -1.1880652e-05   0.0000000e+00   0.0000000e+00   1.3210866e-04   6.7629017e-05   9.8760904e-05  -2.9887548e-05   5.5565499e-05  -1.0271791e-04  -1.6161877e-04  -7.8534410e-05  -3.5683823e-05   7.1847724e-05  -8.6212885e-05  -2.7755646e-04  -3.5122297e-04  -1.2435978e-04  -1.8513735e-07  -1.2973530e-05  -1.3690020e-05  -1.5730119e-04  -1.3862183e-04  -3.1097803e-04  -4.2031689e-04  -2.7878005e-04  -6.3983995e-06  -8.3113012e-05   1.1078620e-05  -7.7708833e-05  -9.8006084e-05  -6.3667831e-06  -3.9253845e-05  -2.0123212e-04   0.0000000e+00  -4.2807903e-06  -1.5428798e-04  -1.8004612e-04  -1.2525207e-04  -1.3400707e-04   0.0000000e+00   0.0000000e+00  -1.6034725e-05   2.6748919e-05  -3.6294263e-06  -6.1223540e-06   3.2163740e-05   2.0894404e-05   1.7785480e-05  -6.4521235e-05  -7.1199236e-05   3.3143111e-05   2.3252775e-05   1.5100686e-05   7.6741671e-06  -8.5672748e-05  -3.6221899e-05  -1.4724644e-05   3.7442257e-05   2.4842850e-05   3.2480325e-05   1.5834112e-05   1.5252929e-05  -2.7454834e-05   2.7568286e-05  -3.2274142e-06  -1.3564245e-05   3.1359121e-06   3.9537126e-06  -3.7975738e-06   3.6709731e-06  -2.8232786e-05   0.0000000e+00  -7.9682562e-05  -2.2376656e-05  -8.8079113e-05   3.8107385e-05   2.8270677e-06   0.0000000e+00   0.0000000e+00  -6.4520541e-05   1.2579365e-04   4.0228399e-05  -1.4764933e-06  -2.1456557e-05   2.6133594e-05   5.0025045e-05   5.6999416e-05   4.7755677e-06   2.6398203e-05   3.1170386e-05   4.7800687e-05   5.6805241e-05   1.7334290e-05   3.0831268e-05   1.5208661e-05   4.0177574e-05   4.0494163e-05   9.0439215e-05   1.3169620e-04   1.2365735e-04   9.9548364e-05   3.6778664e-05   6.2656015e-05   2.2994527e-05   4.2971911e-05  -5.6223843e-06  -3.2522041e-05   1.9080736e-05   8.3834546e-05   0.0000000e+00   7.6598108e-05  -1.0051211e-05  -3.2720302e-05   2.9702228e-05   6.3739459e-05   0.0000000e+00   0.0000000e+00  -2.6311542e-05   4.8969478e-05   3.7359679e-05   5.3303078e-05   4.8629226e-05   3.8367039e-05   2.6462789e-05   1.2874785e-04  -2.8912170e-05   3.3439262e-05   3.0541992e-05   2.2271980e-05   4.5184329e-05   9.1763904e-05   8.9888077e-05   5.0252891e-06   4.3992642e-05  -8.6855871e-06  -3.8730638e-06   5.1079465e-05   4.8247663e-05   5.0284636e-05   4.7474258e-05   2.6192762e-05   5.7084161e-05   3.1760652e-05   3.2399720e-05   4.7431419e-05   3.2225578e-06   3.7578834e-06   0.0000000e+00   1.4156540e-04   5.7649936e-05   1.1048636e-04   1.9644451e-05   2.1891958e-05   0.0000000e+00   0.0000000e+00   4.5456633e-05  -2.0522904e-05  -5.9821451e-06  -3.7261573e-05  -3.4772123e-05   1.5728093e-05   4.9728973e-05  -3.0011887e-05  -5.4722255e-05  -3.1092748e-05   5.8505439e-05   6.9467324e-05   9.3139950e-05  -1.2609181e-04  -4.2538955e-05   2.8778325e-05   5.4476885e-06   6.8166415e-05   1.0274971e-04   1.0500766e-04   1.0863093e-04   6.8218757e-05   7.9702637e-06   2.8358998e-05  -3.8479247e-05  -6.2201398e-05   1.1669237e-05  -2.4998199e-05  -3.6652299e-05  -3.3676556e-05   0.0000000e+00   3.8491232e-05  -5.3813522e-06  -8.5800054e-05   2.6708247e-05   1.7871610e-05   0.0000000e+00   0.0000000e+00  -7.4734719e-05  -4.7939715e-05  -6.1721197e-05  -2.6900341e-05  -9.6751215e-05  -3.8040008e-05  -2.8142110e-05  -7.1483811e-05  -2.2714435e-05  -5.3398289e-05  -1.5368584e-05  -3.2470131e-05  -5.2256898e-06  -6.8676926e-05  -4.2498736e-05   3.0541201e-05  -3.8866752e-05  -2.3997290e-05  -1.8834951e-05  -2.0837172e-05  -5.0725831e-05  -5.5289552e-05  -5.5924820e-05  -2.1193414e-05  -7.4981101e-05  -1.1280286e-04   5.7682949e-05   5.1616841e-05  -6.4146931e-05  -1.0171097e-04   0.0000000e+00  -6.2288786e-05   2.3295583e-05   1.0583467e-04  -2.4056954e-05  -4.5702264e-05   0.0000000e+00   0.0000000e+00  -1.9886972e-04   2.3198149e-04   1.8121215e-04   1.0346317e-04   1.9375650e-04   1.2288118e-04   1.6707337e-04   2.5557256e-04   8.4258782e-05   1.3904198e-04   1.8137624e-04   1.7379899e-04   1.9826861e-04   2.3907531e-05   1.6400273e-04   4.6285707e-05   1.6230897e-04   1.3468765e-04   1.9710719e-04   2.0076733e-04   2.5851043e-04   1.4511806e-04   1.3997785e-04   1.4410345e-04   1.8556688e-04   1.6181923e-04  -2.1356319e-05  -9.8449679e-05   1.2887204e-04   1.8729825e-04   0.0000000e+00   5.0067555e-04   1.2168019e-05  -7.9436663e-05   1.4089679e-04   1.6368518e-04   0.0000000e+00   0.0000000e+00   1.3347352e-04  -3.5809858e-05  -2.7099595e-04  -2.4020085e-04  -3.0941371e-04  -1.7981128e-04  -9.4125821e-05  -1.4224136e-04  -9.4764296e-05  -5.3801014e-05  -2.7287900e-04  -1.8502545e-04  -1.9522550e-04  -3.1425334e-04  -4.6074306e-05  -2.1852245e-05  -1.9609160e-04  -1.2894700e-04  -2.0847474e-04  -1.9194191e-04  -3.0836379e-04  -2.9753807e-04  -2.8616728e-04  -1.5480234e-04  -4.7736863e-04  -3.5428630e-04  -2.8013245e-05   1.0706575e-05  -2.1250740e-04  -4.8705999e-04   0.0000000e+00  -1.5525585e-04  -1.0975525e-04  -1.7450786e-04  -1.4427671e-04  -3.2027904e-04   0.0000000e+00   0.0000000e+00  -5.6760810e-05
   5.6116406e-05  -2.7934892e-05  -3.4330534e-05  -8.9398314e-05  -6.9236490e-05  -9.0961107e-05   1.0213675e-04  -1.5195315e-05  -8.8131716e-05  -1.7269953e-04  -1.6840983e-04  -1.3686916e-04  -2.6319075e-05   1.0714482e-04  -5.9262090e-05  -1.3858737e-04  -2.1320592e-04  -2.2430865e-04  -1.5901237e-04  -1.9050435e-04  -1.2049356e-04  -6.3680909e-05  -8.6454811e-05  -8.2247954e-05  -8.3114300e-05  -1.2504492e-05   2.7087851e-05  -2.3207191e-05  -1.2517431e-04   0.0000000e+00  -2.2518692e-05  -6.8330433e-06   7.5614494e-05  -1.0057978e-04  -1.2934550e-04   0.0000000e+00   0.0000000e+00   7.4333079e-06   2.0150632e-04   4.7772237e-05   2.6743543e-05   7.3423260e-05  -1.9296490e-05  -1.2614638e-05  -1.0881942e-04   3.0193151e-07   1.4853702e-04   7.0243450e-06  -5.9134909e-05  -1.5707648e-04  -1.3660967e-04  -1.2883070e-04  -1.1240076e-05   4.3902655e-05   1.0215876e-05  -6.6466225e-05  -1.2921547e-04  -1.5242806e-04  -9.3372542e-05  -2.9707551e-05  -2.4307577e-05  -2.5483052e-05  -4.2750268e-05   1.1816908e-04   1.3699363e-04   5.6970496e-05  -1.7122497e-04   0.0000000e+00  -1.4100967e-04   4.0560917e-05   9.4741640e-05  -7.7519428e-06  -4.1347199e-05   0.0000000e+00   0.0000000e+00   1.0169201e-04   8.0017557e-05   1.0842425e-04  -3.6396125e-05   4.6545174e-05  -1.1357976e-04  -1.7470514e-04  -9.5034692e-05  -3.0766738e-05   7.9896272e-05  -1.0174807e-04  -3.1108438e-04  -3.7914526e-04  -1.3503865e-04   6.8062435e-06  -8.9859993e-06  -1.9055253e-05  -1.7695705e-04  -1.5397847e-04  -3.3240160e-04  -4.6114223e-04  -3.0851344e-04  -1.2900603e-05  -9.0049808e-05  -7.2285620e-06  -9.9088972e-05  -1.0735714e-04  -2.6470545e-05  -5.4102852e-05  -2.2313601e-04   0.0000000e+00  -2.6228178e-06  -1.7173234e-04  -2.0384083e-04  -1.3023077e-04  -1.4483189e-04   0.0000000e+00   0.0000000e+00  -4.6432388e-05   2.1329909e-05  -1.0555040e-05  -1.1678913e-05   3.3075032e-05   1.9003035e-05   1.6433082e-05  -8.8764073e-05  -8.2542198e-05   3.7154026e-05   2.3255650e-05   1.4259632e-05   5.3011003e-06  -9.2937751e-05  -5.0146013e-05  -2.0130295e-05   3.8976209e-05   2.7291271e-05   3.3933462e-05   1.1182040e-05   1.2522431e-05  -4.0417508e-05   2.6425175e-05  -8.5476594e-06  -1.6286892e-05  -8.7699241e-07  -8.9230995e-06  -1.9325930e-05   7.6026005e-07  -2.9903796e-05   0.0000000e+00  -1.0129826e-04  -3.8233575e-05  -1.2437596e-04   4.3966621e-05   1.7390943e-06   0.0000000e+00   0.0000000e+00  -7.0340379e-05   1.2696931e-04   4.3328830e-05   1.1314486e-06  -2.3868645e-05   2.5294816e-05   4.8044953e-05   6.3440251e-05   9.0566618e-06   2.8083576e-05   3.5954786e-05   4.5332241e-05   5.3469939e-05   8.7260919e-06   3.6024288e-05   1.5864836e-05   4.4761540e-05   4.2237637e-05   9.4298843e-05   1.3207652e-04   1.2563810e-04   1.0651484e-04   3.7392120e-05   6.4073323e-05   2.8686734e-05   4.9299029e-05  -1.6166446e-05  -4.2908671e-05   2.1910984e-05   8.5479573e-05   0.0000000e+00   7.8257852e-05  -2.1265389e-05  -4.8420071e-05   2.8421796e-05   6.3879909e-05   0.0000000e+00   0.0000000e+00  -3.2005797e-05   4.6180297e-05   3.5021457e-05   4.9753602e-05   4.4865440e-05   3.4163279e-05   2.5542058e-05   1.3769932e-04  -3.6855595e-05   2.6300021e-05   2.5487930e-05   1.8226024e-05   4.4540079e-05   9.2394386e-05   9.5178643e-05   1.6621257e-06   3.6764545e-05  -1.4285988e-05  -1.1933315e-05   4.9448312e-05   4.5982349e-05   5.2464309e-05   4.2344865e-05   2.3145095e-05   5.5621820e-05   2.5512883e-05   2.8279447e-05   4.5716226e-05  -1.6324150e-06   3.4680545e-07   0.0000000e+00   1.4148139e-04   5.8108517e-05   1.1856837e-04   1.3048281e-05   1.8617195e-05   0.0000000e+00   0.0000000e+00   4.4607564e-05  -2.2099140e-05  -4.2111832e-06  -3.3229856e-05  -3.1374850e-05   1.8891587e-05   5.1867321e-05  -3.3852795e-05  -5.8693157e-05  -3.1377762e-05   6.6476241e-05   7.5796646e-05   9.7735625e-05  -1.4829212e-04  -5.4316916e-05   3.1161003e-05   8.8098351e-06   7.4087041e-05   1.1582242e-04   1.1024539e-04   1.1864346e-04   6.7267153e-05   1.1325964e-05   2.7372135e-05  -3.5505076e-05  -5.6291976e-05  -5.9984804e-06  -4.8183986e-05  -3.5613355e-05  -3.0392785e-05   0.0000000e+00   3.4350624e-05  -2.6833420e-05  -1.2888640e-04   2.6480410e-05   2.0677774e-05   0.0000000e+00   0.0000000e+00  -8.7872326e-05  -5.9000205e-05  -6.2942396e-05  -2.2381601e-05  -9.9923377e-05  -3.6904351e-05  -2.6222941e-05  -7.0870028e-05  -2.0476590e-05  -5.7365930e-05  -9.1378185e-06  -2.7143104e-05   4.1384519e-06  -7.3421350e-05  -4.4474087e-05   3.5637214e-05  -3.8150131e-05  -1.9413763e-05  -9.7860890e-06  -1.3547671e-05  -4.1695221e-05  -5.4609699e-05  -5.1594984e-05  -2.1915266e-05  -7.4433941e-05  -1.0835640e-04   4.0902076e-05   2.8551088e-05  -6.4508770e-05  -9.3689948e-05   0.0000000e+00  -6.3860560e-05   6.6514619e-06   7.3815983e-05  -2.0375743e-05  -4.1561804e-05   0.0000000e+00   0.0000000e+00  -2.1885766e-04   2.5065774e-04   1.9541243e-04   1.2716297e-04   2.1720188e-04   1.3856038e-04   1.7975149e-04   2.8400252e-04   7.7971381e-05   1.5732211e-04   1.9825549e-04   1.8537587e-04   2.1078069e-04   1.2122578e-05   1.8696924e-04   4.6074052e-05   1.7710057e-04   1.3829071e-04   2.0445275e-04   2.1399021e-04   2.7121117e-04   1.6029891e-04   1.5883979e-04   1.5792956e-04   2.0677629e-04   1.8337525e-04  -4.3050892e-06  -7.8888263e-05   1.4123217e-04   1.9179570e-04   0.0000000e+00   5.4528157e-04   3.1995291e-05  -4.1526633e-05   1.5077117e-04   1.6909692e-04   0.0000000e+00   0.0000000e+00   1.3655785e-04  -4.8560013e-05  -3.0902836e-04  -2.7134257e-04  -3.4911873e-04  -2.0042244e-04  -1.0260526e-04  -1.5903728e-04  -1.0159072e-04  -6.2017564e-05  -3.0191526e-04  -1.9995300e-04  -2.0886049e-04  -3.4710923e-04  -4.4401214e-05  -1.8257701e-05  -2.1234509e-04  -1.3661816e-04  -2.1954269e-04  -2.0564010e-04  -3.3535751e-04  -3.2606408e-04  -3.1918328e-04  -1.7487281e-04  -5.3067423e-04  -3.8846769e-04  -3.7908156e-05  -5.6444719e-07  -2.3848358e-04  -5.2722996e-04   0.0000000e+00  -1.6921994e-04  -1.2489858e-04  -1.9984213e-04  -1.5473534e-04  -3.4246367e-04   0.0000000e+00   0.0000000e+00  -7.5525738e-05
   4.8892239e-05  -3.9885811e-05  -5.2227582e-05  -1.1154543e-04  -8.3081648e-05  -1.0306634e-04   1.0247077e-04  -2.0865833e-05  -1.0368110e-04  -1.9812603e-04  -1.9003694e-04  -1.5233706e-04  -2.2761837e-05   1.1595915e-04  -6.7519370e-05  -1.6240010e-04  -2.3884226e-04  -2.5101507e-04  -1.7737290e-04  -2.1059647e-04  -1.4067531e-04  -7.6853667e-05  -9.9319303e-05  -1.0301411e-04  -1.0216330e-04  -1.9753280e-05   1.9669852e-05  -3.2363353e-05  -1.4002012e-04   0.0000000e+00  -2.9359336e-05  -1.3833633e-05   6.4577483e-05  -1.1140079e-04  -1.4204730e-04   0.0000000e+00   0.0000000e+00   2.4573599e-06   1.9169972e-04   9.5351825e-06   2.5788070e-06   4.0858239e-05  -4.9298305e-05  -3.7686469e-05  -1.4758404e-04  -1.5396133e-05   1.3415605e-04  -3.2791181e-05  -9.9420330e-05  -2.0525306e-04  -1.6244570e-04  -1.5263599e-04  -2.2503258e-05   1.4971180e-05  -1.7441422e-05  -1.1372090e-04  -1.7718663e-04  -2.1699717e-04  -1.3113130e-04  -6.9962361e-05  -5.0133442e-05  -6.6364858e-05  -8.5653153e-05   1.2807255e-04   1.5162554e-04   3.8551387e-05  -2.2099349e-04   0.0000000e+00  -2.0400951e-04   4.4005250e-05   1.1912455e-04  -3.0232383e-05  -7.2584228e-05   0.0000000e+00   0.0000000e+00   6.2068291e-05   9.2688550e-05   1.1913865e-04  -4.1678470e-05   3.7334918e-05  -1.2055997e-04  -1.8351103e-04  -1.1129169e-04  -2.4256175e-05   8.7547203e-05  -1.1563910e-04  -3.3915571e-04  -3.9881469e-04  -1.4171732e-04   1.5689959e-05  -5.0375117e-06  -2.4775727e-05  -1.9400868e-04  -1.6601019e-04  -3.4597189e-04  -4.9194952e-04  -3.3067631e-04  -1.6629182e-05  -9.2758618e-05  -2.3743094e-05  -1.1781979e-04  -1.1398192e-04  -4.8965638e-05  -6.8383898e-05  -2.3793896e-04   0.0000000e+00   1.1702990e-06  -1.8543200e-04  -2.2388663e-04  -1.3055275e-04  -1.5071704e-04   0.0000000e+00   0.0000000e+00  -7.9032665e-05   1.3653230e-05  -1.8228123e-05  -1.9247898e-05   3.2490733e-05   1.5665848e-05   1.4752411e-05  -1.1439856e-04  -9.3500500e-05   3.9575660e-05   2.2674656e-05   1.3211111e-05   3.0287069e-06  -1.0043084e-04  -6.5129999e-05  -2.5600683e-05   3.8976510e-05   2.9660376e-05   3.5230541e-05   5.6850638e-06   9.8458451e-06  -5.3534499e-05   2.3571158e-05  -1.3853802e-05  -1.8808094e-05  -5.8372727e-06  -2.4471774e-05  -3.8101266e-05  -2.5328579e-06  -3.0132349e-05   0.0000000e+00  -1.2371253e-04  -5.6016936e-05  -1.6391450e-04   4.9110190e-05   9.9887150e-07   0.0000000e+00   0.0000000e+00  -7.4116183e-05   1.2352378e-04   4.4615580e-05   3.7621864e-06  -2.7103798e-05   2.3695271e-05   4.3891251e-05   6.8918337e-05   1.4230471e-05   2.8347515e-05   4.0044454e-05   4.1772493e-05   4.8233043e-05  -3.0850400e-07   4.1903664e-05   1.6344892e-05   4.7855843e-05   4.3106504e-05   9.6341184e-05   1.2851001e-04   1.2418392e-04   1.1073512e-04   3.6771950e-05   6.3278029e-05   3.3078790e-05   5.4971355e-05  -2.9751660e-05  -5.5225066e-05   2.4631980e-05   8.5161541e-05   0.0000000e+00   7.5406165e-05  -3.5061490e-05  -6.7117269e-05   2.5924392e-05   6.1864008e-05   0.0000000e+00   0.0000000e+00  -3.9275522e-05   3.9645958e-05   2.9887103e-05   4.4848439e-05   3.8349904e-05   2.8133012e-05   2.2582311e-05   1.4391476e-04  -4.5722335e-05   1.7656347e-05   1.7456118e-05   1.1778527e-05   4.0882477e-05   9.0902831e-05   1.0004712e-04  -2.3497030e-06   2.6824853e-05  -2.1284047e-05  -2.1979476e-05   4.5058983e-05   4.0029177e-05   5.2185260e-05   3.5042774e-05   1.8184456e-05   5.0987648e-05   1.7729708e-05   2.4137960e-05   4.4442135e-05  -7.3803109e-06  -4.4215217e-06   0.0000000e+00   1.3703686e-04   5.7837579e-05   1.2677294e-04   4.6792739e-06   1.3482981e-05   0.0000000e+00   0.0000000e+00   4.1803280e-05  -2.4694921e-05  -2.2411054e-06  -2.7308342e-05  -2.6640798e-05   2.2184541e-05   5.2874683e-05  -3.8095774e-05  -6.1651577e-05  -3.0719823e-05   7.3736364e-05   8.1104701e-05   1.0066970e-04  -1.6926074e-04  -6.6359961e-05   3.2878857e-05   1.2015559e-05   7.8679964e-05   1.2766438e-04   1.1341207e-04   1.2727044e-04   6.4324953e-05   1.5078872e-05   2.5413816e-05  -3.1229318e-05  -4.7216821e-05  -2.6016767e-05  -7.3076200e-05  -3.3066214e-05  -2.5082273e-05   0.0000000e+00   2.8197824e-05  -5.0244320e-05  -1.7322031e-04   2.5927614e-05   2.3539175e-05   0.0000000e+00   0.0000000e+00  -9.9868720e-05  -7.0652414e-05  -6.2606646e-05  -1.5742799e-05  -1.0022062e-04  -3.4327725e-05  -2.3305406e-05  -6.8425110e-05  -1.6842834e-05  -5.9711201e-05  -1.3078481e-06  -1.9729832e-05   1.5107337e-05  -7.7211862e-05  -4.5851592e-05   4.0559928e-05  -3.5915202e-05  -1.2978278e-05   1.8013391e-06  -4.5837857e-06  -2.9405534e-05  -5.2308629e-05  -4.5020041e-05  -2.2252967e-05  -7.2263966e-05  -1.0015042e-04   1.9826670e-05   4.1086204e-07  -6.2841430e-05  -8.1532895e-05   0.0000000e+00  -6.4280616e-05  -1.3402228e-05   3.2592488e-05  -1.4910797e-05  -3.5325041e-05   0.0000000e+00   0.0000000e+00  -2.3736154e-04   2.6187157e-04   2.0467942e-04   1.5111078e-04   2.3750308e-04   1.5255948e-04   1.8880732e-04   3.0731519e-04   6.9070193e-05   1.7331289e-04   2.1175569e-04   1.9337217e-04   2.1913821e-04   1.0602671e-06   2.0722823e-04   4.5196303e-05   1.8954044e-04   1.3865954e-04   2.0804716e-04   2.2318069e-04   2.7783593e-04   1.7323308e-04   1.7559954e-04   1.6869377e-04   2.2445473e-04   2.0199724e-04   1.4367049e-05  -5.4616013e-05   1.5021969e-04   1.9079580e-04   0.0000000e+00   5.8204683e-04   5.3511520e-05   3.8752091e-06   1.5761600e-04   1.7003477e-04   0.0000000e+00   0.0000000e+00   1.3927716e-04  -6.3089679e-05  -3.4275589e-04  -2.9863324e-04  -3.8425200e-04  -2.1788645e-04  -1.0898428e-04  -1.7361861e-04  -1.0582947e-04  -6.8984235e-05  -3.2546895e-04  -2.1100717e-04  -2.1716582e-04  -3.7323215e-04  -4.0040034e-05  -1.3193135e-05  -2.2384580e-04  -1.4161108e-04  -2.2525079e-04  -2.1450568e-04  -3.5566409e-04  -3.4806586e-04  -3.4681763e-04  -1.9204410e-04  -5.7417626e-04  -4.1519564e-04  -4.7791022e-05  -1.3891599e-05  -2.6113007e-04  -5.5528605e-04   0.0000000e+00  -1.7712943e-04  -1.3804007e-04  -2.2271776e-04  -1.6101359e-04  -3.5601220e-04   0.0000000e+00   0.0000000e+00  -9.4151914e-05
   3.9900329e-05  -5.2647209e-05  -7.1324778e-05  -1.3406025e-04  -9.6517211e-05  -1.1372130e-04   1.0041310e-04  -2.6795391e-05  -1.1874465e-04  -2.2158520e-04  -2.0934644e-04  -1.6537548e-04  -1.7313948e-05   1.2320862e-04  -7.4710338e-05  -1.8501724e-04  -2.6138355e-04  -2.7454031e-04  -1.9281571e-04  -2.2764197e-04  -1.5893813e-04  -9.0163745e-05  -1.1079654e-04  -1.2440721e-04  -1.2197624e-04  -2.5178447e-05   1.3300677e-05  -4.2240258e-05  -1.5435990e-04   0.0000000e+00  -3.5927700e-05  -1.9341669e-05   5.4439299e-05  -1.2066143e-04  -1.5301459e-04   0.0000000e+00   0.0000000e+00  -3.1813388e-06   1.7654322e-04  -3.2146352e-05  -2.3116937e-05   4.4306319e-06  -7.9980175e-05  -6.3799904e-05  -1.8590881e-04  -3.2961662e-05   1.1473959e-04  -7.5027079e-05  -1.4082987e-04  -2.5207098e-04  -1.8899112e-04  -1.7464972e-04  -3.3287925e-05  -1.6354429e-05  -4.6891166e-05  -1.6110498e-04  -2.2465816e-04  -2.8123935e-04  -1.6900746e-04  -1.1050971e-04  -7.6840514e-05  -1.0854702e-04  -1.2974406e-04   1.3654432e-04   1.6439204e-04   1.6832832e-05  -2.6913093e-04   0.0000000e+00  -2.6614289e-04   4.7491627e-05   1.4463976e-04  -5.3890263e-05  -1.0407971e-04   0.0000000e+00   0.0000000e+00   1.4708320e-05   1.0530273e-04   1.3123016e-04  -4.5469739e-05   2.8675364e-05  -1.2315362e-04  -1.8774901e-04  -1.2678849e-04  -1.6703331e-05   9.4559480e-05  -1.2744824e-04  -3.6090190e-04  -4.0963749e-04  -1.4412377e-04   2.6234821e-05  -1.6443543e-06  -3.0904877e-05  -2.0807956e-04  -1.7452659e-04  -3.5138961e-04  -5.1160408e-04  -3.4418504e-04  -1.6860644e-05  -9.0745025e-05  -3.6948404e-05  -1.3268972e-04  -1.1748950e-04  -7.2932118e-05  -8.1348839e-05  -2.4452558e-04   0.0000000e+00   7.5230831e-06  -1.9472070e-04  -2.3932470e-04  -1.2609363e-04  -1.5119599e-04   0.0000000e+00   0.0000000e+00  -1.1209128e-04   3.9694511e-06  -2.6286213e-05  -2.8860307e-05   3.0407939e-05   1.0935117e-05   1.3005533e-05  -1.4038919e-04  -1.0358172e-04   4.0067772e-05   2.1731652e-05   1.2243200e-05   1.2133223e-06  -1.0816652e-04  -8.0609995e-05  -3.0800635e-05   3.7432145e-05   3.2131576e-05   3.6649783e-05  -2.6898239e-07   7.6863303e-06  -6.6028892e-05   1.8975757e-05  -1.8695738e-05  -2.1006918e-05  -1.1603181e-05  -4.2161983e-05  -5.9586447e-05  -6.0050836e-06  -2.8773880e-05   0.0000000e+00  -1.4615306e-04  -7.5119782e-05  -2.0542393e-04   5.3327794e-05   7.9621453e-07   0.0000000e+00   0.0000000e+00  -7.5626953e-05   1.1544351e-04   4.4094168e-05   6.4159016e-06  -3.1105583e-05   2.1603775e-05   3.7785883e-05   7.3238149e-05   2.0203380e-05   2.7232512e-05   4.3365801e-05   3.7545338e-05   4.1458994e-05  -9.1571278e-06   4.8158478e-05   1.6732043e-05   4.9401502e-05   4.3279873e-05   9.6965347e-05   1.2148310e-04   1.1977693e-04   1.1214669e-04   3.5210072e-05   6.0390886e-05   3.6013077e-05   6.0036504e-05  -4.6399882e-05  -6.9485328e-05   2.7306736e-05   8.3524345e-05   0.0000000e+00   6.8035863e-05  -5.1248158e-05  -8.8672995e-05   2.2439397e-05   5.8055820e-05   0.0000000e+00   0.0000000e+00  -4.7942989e-05   2.9335838e-05   2.2053987e-05   3.9033438e-05   2.9395534e-05   2.0672871e-05   1.7661996e-05   1.4743177e-04  -5.5208048e-05   8.0205449e-06   6.7999806e-06   3.2713726e-06   3.4351945e-05   8.7498997e-05   1.0455833e-04  -6.7587884e-06   1.4766739e-05  -2.9310538e-05  -3.3533392e-05   3.8146097e-05   3.0561993e-05   4.9471547e-05   2.6014346e-05   1.1561710e-05   4.3339205e-05   8.8388661e-06   2.0482270e-05   4.4031800e-05  -1.3827003e-05  -1.0402263e-05   0.0000000e+00   1.2887606e-04   5.7122093e-05   1.3523596e-04  -4.9918572e-06   6.7348708e-06   0.0000000e+00   0.0000000e+00   3.7076206e-05  -2.8408442e-05  -4.1285670e-08  -1.9616753e-05  -2.0564654e-05   2.5664144e-05   5.2973830e-05  -4.2908477e-05  -6.3604085e-05  -2.8931957e-05   8.0342234e-05   8.5534623e-05   1.0221426e-04  -1.8792671e-04  -7.8194287e-05   3.3937032e-05   1.5107893e-05   8.2155365e-05   1.3824501e-04   1.1482928e-04   1.3465672e-04   5.9878562e-05   1.9245001e-05   2.2789896e-05  -2.5750095e-05  -3.5176096e-05  -4.7175234e-05  -9.8289268e-05  -2.9010340e-05  -1.7713979e-05   0.0000000e+00   2.0408353e-05  -7.4262420e-05  -2.1648441e-04   2.5432227e-05   2.6594297e-05   0.0000000e+00   0.0000000e+00  -1.1005977e-04  -8.2691372e-05  -6.0916595e-05  -7.0705042e-06  -9.7508722e-05  -3.0363728e-05  -1.9493777e-05  -6.4438784e-05  -1.1860972e-05  -6.0133737e-05   8.0115076e-06  -1.0241939e-05   2.7387179e-05  -7.9884248e-05  -4.6713596e-05   4.5226338e-05  -3.2118113e-05  -4.6331095e-06   1.5844862e-05   5.7772493e-06  -1.4215267e-05  -4.8531930e-05  -3.6585975e-05  -2.2151456e-05  -6.8869408e-05  -8.8753884e-05  -4.5832401e-06  -3.1585718e-05  -5.9239930e-05  -6.5913697e-05   0.0000000e+00  -6.3646430e-05  -3.6049490e-05  -1.6385258e-05  -7.6485575e-06  -2.7235802e-05   0.0000000e+00   0.0000000e+00  -2.5423673e-04   2.6528633e-04   2.0895750e-04   1.7438401e-04   2.5419831e-04   1.6448298e-04   1.9421563e-04   3.2479903e-04   5.8550364e-05   1.8631972e-04   2.2179481e-04   1.9788131e-04   2.2354935e-04  -8.1399230e-06   2.2394638e-04   4.3988065e-05   1.9947148e-04   1.3629062e-04   2.0849571e-04   2.2841964e-04   2.7885737e-04   1.8390674e-04   1.8971683e-04   1.7625085e-04   2.3843332e-04   2.1711503e-04   3.3177569e-05  -2.7400803e-05   1.5558331e-04   1.8500013e-04   0.0000000e+00   6.1026970e-04   7.5467635e-05   5.4419316e-05   1.6132345e-04   1.6697836e-04   0.0000000e+00   0.0000000e+00   1.4266057e-04  -7.8955843e-05  -3.7082683e-04  -3.2113938e-04  -4.1369246e-04  -2.3157387e-04  -1.1286366e-04  -1.8548211e-04  -1.0725408e-04  -7.4322613e-05  -3.4263211e-04  -2.1780933e-04  -2.1948382e-04  -3.9169949e-04  -3.3013438e-05  -6.7940056e-06  -2.3013328e-04  -1.4388888e-04  -2.2544837e-04  -2.1797303e-04  -3.6833533e-04  -3.6259626e-04  -3.6802258e-04  -2.0550120e-04  -6.0623639e-04  -4.3361875e-04  -5.7017865e-05  -2.8570600e-05  -2.7967151e-04  -5.7016349e-04   0.0000000e+00  -1.7784554e-04  -1.4851072e-04  -2.4207365e-04  -1.6273835e-04  -3.6040934e-04   0.0000000e+00   0.0000000e+00  -1.1164937e-04
   2.9529133e-05  -6.5900164e-05  -9.0922648e-05  -1.5635247e-04  -1.0912032e-04  -1.2259611e-04   9.6223544e-05  -3.2820900e-05  -1.3292658e-04  -2.4238550e-04  -2.2577203e-04  -1.7553627e-04  -1.0306786e-05   1.2886325e-04  -8.0528737e-05  -2.0576267e-04  -2.8024295e-04  -2.9420630e-04  -2.0479420e-04  -2.4118989e-04  -1.7464662e-04  -1.0327075e-04  -1.2055185e-04  -1.4586232e-04  -1.4208984e-04  -2.8358250e-05   8.5287875e-06  -5.2605203e-05  -1.6805606e-04   0.0000000e+00  -4.1980068e-05  -2.2985920e-05   4.6139790e-05  -1.2816006e-04  -1.6210659e-04   0.0000000e+00   0.0000000e+00  -9.4806523e-06   1.5681461e-04  -7.5452012e-05  -4.9174829e-05  -3.4158519e-05  -1.0989896e-04  -8.9683989e-05  -2.2196105e-04  -5.1474609e-05   9.1221039e-05  -1.1754192e-04  -1.8132344e-04  -2.9534569e-04  -2.1543452e-04  -1.9403632e-04  -4.2886065e-05  -4.8436004e-05  -7.6557401e-05  -2.0625653e-04  -2.6952538e-04  -3.4219607e-04  -2.0524600e-04  -1.4946252e-04  -1.0314145e-04  -1.5012281e-04  -1.7324421e-04   1.4359544e-04   1.7495115e-04  -7.2803632e-06  -3.1386518e-04   0.0000000e+00  -3.2452895e-04   5.1135134e-05   1.7046951e-04  -7.7569248e-05  -1.3439648e-04   0.0000000e+00   0.0000000e+00  -3.8627740e-05   1.1749881e-04   1.4487668e-04  -4.7685850e-05   2.1088577e-05  -1.2117714e-04  -1.8740476e-04  -1.4108990e-04  -8.7554533e-06   1.0064582e-04  -1.3694788e-04  -3.7583874e-04  -4.1146146e-04  -1.4231117e-04   3.8073318e-05   7.2197630e-07  -3.7545498e-05  -2.1900718e-04  -1.7960491e-04  -3.4877178e-04  -5.1957978e-04  -3.4849418e-04  -1.3187625e-05  -8.3857458e-05  -4.5689507e-05  -1.4283753e-04  -1.1767067e-04  -9.7380864e-05  -9.2392288e-05  -2.4232041e-04   0.0000000e+00   1.6728159e-05  -1.9918447e-04  -2.4957485e-04  -1.1702607e-04  -1.4617070e-04   0.0000000e+00   0.0000000e+00  -1.4388125e-04  -7.3409900e-06  -3.4342540e-05  -4.0401610e-05   2.6935426e-05   4.9529482e-06   1.1469700e-05  -1.6570525e-04  -1.1227410e-04   3.8417123e-05   2.0700983e-05   1.1674158e-05   2.0041415e-07  -1.1598377e-04  -9.6009841e-05  -3.5400293e-05   3.4441743e-05   3.4920979e-05   3.8489091e-05  -6.2543689e-06   6.4937106e-06  -7.7153370e-05   1.2710241e-05  -2.2638928e-05  -2.2777177e-05  -1.7984016e-05  -6.1342016e-05  -8.3071084e-05  -9.4391441e-06  -2.5771906e-05   0.0000000e+00  -1.6781624e-04  -9.4877273e-05  -2.4757856e-04   5.6473656e-05   1.2924970e-06   0.0000000e+00   0.0000000e+00  -7.4784648e-05   1.0292151e-04   4.1933179e-05   9.1679533e-06  -3.5679686e-05   1.9349516e-05   3.0076702e-05   7.6318463e-05   2.6863976e-05   2.4934840e-05   4.5954535e-05   3.3128004e-05   3.3601319e-05  -1.7258389e-05   5.4428600e-05   1.7140496e-05   4.9511645e-05   4.3025947e-05   9.6707243e-05   1.1169350e-04   1.1309527e-04   1.1088499e-04   3.3101453e-05   5.5683398e-05   3.7513516e-05   6.4646109e-05  -6.5930384e-05  -8.5547624e-05   3.0047493e-05   8.1335701e-05   0.0000000e+00   5.6549545e-05  -6.9451055e-05  -1.1274388e-04   1.8289009e-05   5.2959614e-05   0.0000000e+00   0.0000000e+00  -5.7653026e-05   1.5466923e-05   1.1814271e-05   3.2754982e-05   1.8479887e-05   1.2271206e-05   1.1023794e-05   1.4846223e-04  -6.4928002e-05  -2.0785820e-06  -5.8953335e-06  -6.7510198e-06   2.5334027e-05   8.2436380e-05   1.0869132e-04  -1.1267857e-05   1.3319256e-06  -3.7851217e-05  -4.5948811e-05   2.9138822e-05   1.8044033e-05   4.4554015e-05   1.5795044e-05   3.6626966e-06   3.3051567e-05  -6.8809965e-07   1.7747709e-05   4.4767715e-05  -2.0746052e-05  -1.7341554e-05   0.0000000e+00   1.1787758e-04   5.6244210e-05   1.4397006e-04  -1.5403714e-05  -1.2451740e-06   0.0000000e+00   0.0000000e+00   3.0536436e-05  -3.3212635e-05   2.4504887e-06  -1.0340123e-05  -1.3136749e-05   2.9400386e-05   5.2458038e-05  -4.8470087e-05  -6.4610337e-05  -2.5827631e-05   8.6435813e-05   8.9290187e-05   1.0271004e-04  -2.0328705e-04  -8.9408081e-05   3.4379509e-05   1.8203381e-05   8.4837774e-05   1.4762298e-04   1.1491181e-04   1.4102278e-04   5.4504770e-05   2.3842540e-05   1.9869376e-05  -1.9165484e-05  -2.0482050e-05  -6.8198350e-05  -1.2244057e-04  -2.3504743e-05  -8.3167777e-06   0.0000000e+00   1.1453092e-05  -9.7533326e-05  -2.5655794e-04   2.5391456e-05   3.0007317e-05   0.0000000e+00   0.0000000e+00  -1.1785004e-04  -9.4874448e-05  -5.8140708e-05   3.4548559e-06  -9.1733219e-05  -2.5115521e-05  -1.4918019e-05  -5.9254421e-05  -5.6244978e-06  -5.8392199e-05   1.8686763e-05   1.2746124e-06   4.0638066e-05  -8.1264422e-05  -4.7168492e-05   4.9579162e-05  -2.6741231e-05   5.6541448e-06   3.2203439e-05   1.7205149e-05   3.3811803e-06  -4.3470977e-05  -2.6768985e-05  -2.1545792e-05  -6.4675433e-05  -7.4876907e-05  -3.1196226e-05  -6.6023684e-05  -5.3886961e-05  -4.7675358e-05   0.0000000e+00  -6.2072197e-05  -6.0345871e-05  -7.1332300e-05   1.3647962e-06  -1.7615653e-05   0.0000000e+00   0.0000000e+00  -2.6934696e-04   2.6110673e-04   2.0853370e-04   1.9603977e-04   2.6703039e-04   1.7403224e-04   1.9617145e-04   3.3615920e-04   4.7541937e-05   1.9574740e-04   2.2851571e-04   1.9919900e-04   2.2445764e-04  -1.4535566e-05   2.3649165e-04   4.2789342e-05   2.0682703e-04   1.3184821e-04   2.0655958e-04   2.2998987e-04   2.7507583e-04   1.9246489e-04   2.0076858e-04   1.8067232e-04   2.4882179e-04   2.2837090e-04   5.0603241e-05   7.7574865e-07   1.5731431e-04   1.7542174e-04   0.0000000e+00   6.2965882e-04   9.6550576e-05   1.0736859e-04   1.6191864e-04   1.6065150e-04   0.0000000e+00   0.0000000e+00   1.4766585e-04  -9.5609666e-05  -3.9218648e-04  -3.3819838e-04  -4.3663613e-04  -2.4107037e-04  -1.1394306e-04  -1.9428336e-04  -1.0580570e-04  -7.7755686e-05  -3.5284118e-04  -2.2019160e-04  -2.1543216e-04  -4.0203667e-04  -2.3502968e-05   7.1979395e-07  -2.3103499e-04  -1.4354146e-04  -2.2026123e-04  -2.1572490e-04  -3.7276089e-04  -3.6909061e-04  -3.8209277e-04  -2.1461936e-04  -6.2583758e-04  -4.4332489e-04  -6.4960049e-05  -4.3794166e-05  -2.9354308e-04  -5.7151379e-04   0.0000000e+00  -1.7060541e-04  -1.5577379e-04  -2.5700190e-04  -1.5979996e-04  -3.5563979e-04   0.0000000e+00   0.0000000e+00  -1.2710845e-04
   1.8167973e-05  -7.9328876e-05  -1.1030650e-04  -1.7787589e-04  -1.2052568e-04  -1.2947070e-04   9.0253980e-05  -3.8789323e-05  -1.4589174e-04  -2.5998859e-04  -2.3890694e-04  -1.8252367e-04  -2.2353049e-06   1.3298035e-04  -8.4746805e-05  -2.2407973e-04  -2.9504381e-04  -3.0952985e-04  -2.1295108e-04  -2.5096733e-04  -1.8735116e-04  -1.1584399e-04  -1.2837744e-04  -1.6682205e-04  -1.6201595e-04  -2.9119928e-05   5.6679675e-06  -6.3212226e-05  -1.8097544e-04   0.0000000e+00  -4.7336116e-05  -2.4617565e-05   4.0284083e-05  -1.3379606e-04  -1.6927560e-04   0.0000000e+00   0.0000000e+00  -1.6465093e-05   1.3342648e-04  -1.1859829e-04  -7.4508050e-05  -7.3205086e-05  -1.3773282e-04  -1.1411064e-04  -2.5406011e-04  -6.9946177e-05   6.4684365e-05  -1.5825750e-04  -2.1895147e-04  -3.3313316e-04  -2.4093051e-04  -2.1012412e-04  -5.0686377e-05  -7.9672393e-05  -1.0488493e-04  -2.4703916e-04  -3.0987156e-04  -3.9717944e-04  -2.3820132e-04  -1.8515578e-04  -1.2779655e-04  -1.8933951e-04  -2.1455600e-04   1.4931851e-04   1.8306996e-04  -3.2798766e-05  -3.5373355e-04   0.0000000e+00  -3.7665759e-04   5.5048230e-05   1.9575364e-04  -1.0015974e-04  -1.6225247e-04   0.0000000e+00   0.0000000e+00  -9.5985985e-05   1.2889651e-04   1.6006120e-04  -4.8455006e-05   1.4804711e-05  -1.1481387e-04  -1.8273618e-04  -1.5385802e-04  -1.1147810e-06   1.0548340e-04  -1.4415154e-04  -3.8391491e-04  -4.0460140e-04  -1.3668535e-04   5.0723710e-05   1.6522802e-06  -4.4873843e-05  -2.2684452e-04  -1.8159270e-04  -3.3866686e-04  -5.1600760e-04  -3.4364141e-04  -5.5628285e-06  -7.2305639e-05  -4.9273760e-05  -1.4781004e-04  -1.1452202e-04  -1.2132547e-04  -1.0110810e-04  -2.3136796e-04   0.0000000e+00   2.8891421e-05  -1.9870102e-04  -2.5437251e-04  -1.0382350e-04  -1.3594705e-04   0.0000000e+00   0.0000000e+00  -1.7281491e-04  -1.9785436e-05  -4.2005090e-05  -5.3602257e-05   2.2288640e-05  -2.0532626e-06   1.0417026e-05  -1.8939086e-04  -1.1907541e-04   3.4567540e-05   1.9893571e-05   1.1828678e-05   3.0103912e-07  -1.2355107e-04  -1.1078275e-04  -3.9095975e-05   3.0209710e-05   3.8263677e-05   4.1043929e-05  -1.1833802e-05   6.6806530e-06  -8.6236186e-05   4.9512139e-06  -2.5292064e-05  -2.4028313e-05  -2.4744798e-05  -8.1285819e-05  -1.0772047e-04  -1.2615881e-05  -2.1156346e-05   0.0000000e+00  -1.8789324e-04  -1.1460702e-04  -2.8907943e-04   5.8473947e-05   2.6088335e-06   0.0000000e+00   0.0000000e+00  -7.1635859e-05   8.6357081e-05   3.8449660e-05   1.2171375e-05  -4.0497117e-05   1.7306621e-05   2.1231505e-05   7.8210090e-05   3.4101570e-05   2.1807287e-05   4.7957280e-05   2.9028630e-05   2.5182087e-05  -2.4132793e-05   6.0353488e-05   1.7707361e-05   4.8473242e-05   4.2697757e-05   9.6195889e-05   1.0000615e-04   1.0496352e-04   1.0728621e-04   3.0912033e-05   4.9564120e-05   3.7774276e-05   6.9040250e-05  -8.7930801e-05  -1.0308440e-04   3.2999834e-05   7.9421876e-05   0.0000000e+00   4.1742202e-05  -8.9106534e-05  -1.3874609e-04   1.3871702e-05   4.7180211e-05   0.0000000e+00   0.0000000e+00  -6.7885935e-05  -1.5030981e-06  -3.6072202e-07   2.6432468e-05   6.2127182e-06   3.4729968e-06   3.0591689e-06   1.4737468e-04  -7.4444541e-05  -1.2127154e-05  -1.9850839e-05  -1.7576373e-05   1.4431294e-05   7.5988398e-05   1.1233623e-04  -1.5554733e-05  -1.2637842e-05  -4.6280939e-05  -5.8453226e-05   1.8634767e-05   3.1968185e-06   3.7858790e-05   4.9763436e-06  -5.0154491e-06   2.0697558e-05  -1.0360910e-05   1.6273242e-05   4.6789945e-05  -2.7889255e-05  -2.4891312e-05   0.0000000e+00   1.0508904e-04   5.5471896e-05   1.5287751e-04  -2.5945634e-05  -9.9604598e-06   0.0000000e+00   0.0000000e+00   2.2364640e-05  -3.8964061e-05   5.3166654e-06   2.6788625e-07  -4.3581977e-06   3.3455392e-05   5.1657668e-05  -5.4960761e-05  -6.4780762e-05  -2.1250969e-05   9.2218414e-05   9.2611801e-05   1.0253314e-04  -2.1448151e-04  -9.9685278e-05   3.4278049e-05   2.1470998e-05   8.7118493e-05   1.5591689e-04   1.1411892e-04   1.4662722e-04   4.8811832e-05   2.8881759e-05   1.7049558e-05  -1.1570339e-05  -3.5482454e-06  -8.7845561e-05  -1.4425675e-04  -1.6664294e-05   3.0155658e-06   0.0000000e+00   1.8601948e-06  -1.1880863e-04  -2.9167192e-04   2.6182898e-05   3.3947732e-05   0.0000000e+00   0.0000000e+00  -1.2275323e-04  -1.0692287e-04  -5.4592064e-05   1.5564906e-05  -8.2924560e-05  -1.8734838e-05  -9.7287499e-06  -5.3235112e-05   1.7333555e-06  -5.4327094e-05   3.0560756e-05   1.4730692e-05   5.4479517e-05  -8.1182422e-05  -4.7341035e-05   5.3590297e-05  -1.9796457e-05   1.7881822e-05   5.0673537e-05   2.9322196e-05   2.2772319e-05  -3.7363804e-05  -1.6108423e-05  -2.0372323e-05  -6.0093463e-05  -5.9316196e-05  -5.8786490e-05  -1.0137574e-04  -4.7035004e-05  -2.7776391e-05   0.0000000e+00  -5.9678336e-05  -8.5272384e-05  -1.3022955e-04   1.2013661e-05  -6.8451159e-06   0.0000000e+00   0.0000000e+00  -2.8255758e-04   2.5005191e-04   2.0399488e-04   2.1518032e-04   2.7594537e-04   1.8101620e-04   1.9506346e-04   3.4152454e-04   3.7189147e-05   2.0114038e-04   2.3226188e-04   1.9778652e-04   2.2249006e-04  -1.7454309e-05   2.4448212e-04   4.1914203e-05   2.1162478e-04   1.2610755e-04   2.0308329e-04   2.2834715e-04   2.6753042e-04   1.9918021e-04   2.0846771e-04   1.8222371e-04   2.5595949e-04   2.3563004e-04   6.5205365e-05   2.7859528e-05   1.5564618e-04   1.6328165e-04   0.0000000e+00   6.4035986e-04   1.1548644e-04   1.5974939e-04   1.5956193e-04   1.5195175e-04   0.0000000e+00   0.0000000e+00   1.5510137e-04  -1.1244651e-04  -4.0615034e-04  -3.4945947e-04  -4.5264310e-04  -2.4619931e-04  -1.1205930e-04  -1.9986375e-04  -1.0159731e-04  -7.9127721e-05  -3.5591378e-04  -2.1821407e-04  -2.0496985e-04  -4.0423492e-04  -1.1842125e-05   9.0662723e-06  -2.2667462e-04  -1.4079191e-04  -2.1008356e-04  -2.0772560e-04  -3.6873461e-04  -3.6740946e-04  -3.8870120e-04  -2.1901400e-04  -6.3263245e-04  -4.4434471e-04  -7.1063719e-05  -5.8713673e-05  -3.0241459e-04  -5.5970978e-04   0.0000000e+00  -1.5508704e-04  -1.5946322e-04  -2.6680460e-04  -1.5236609e-04  -3.4219378e-04   0.0000000e+00   0.0000000e+00  -1.3975356e-04
   6.1856776e-06  -9.2628972e-05  -1.2878328e-04  -1.9814730e-04  -1.3043780e-04  -1.3424077e-04   8.2921872e-05  -4.4563474e-05  -1.5737691e-04  -2.7402710e-04  -2.4851370e-04  -1.8620382e-04   6.2771215e-06   1.3569129e-04  -8.7225557e-05  -2.3955415e-04  -3.0562492e-04  -3.2023705e-04  -2.1712756e-04  -2.5688084e-04  -1.9680314e-04  -1.2757255e-04  -1.3419549e-04  -1.8675566e-04  -1.8125754e-04  -2.7547101e-05   4.7786641e-06  -7.3809624e-05  -1.9298213e-04   0.0000000e+00  -5.1887615e-05  -2.4312365e-05   3.7119655e-05  -1.3756413e-04  -1.7455819e-04   0.0000000e+00   0.0000000e+00  -2.4172103e-05   1.0739222e-04  -1.5992270e-04  -9.8161517e-05  -1.1109621e-04  -1.6235523e-04  -1.3595910e-04  -2.8078260e-04  -8.7390697e-05   3.6303427e-05  -1.9529165e-04  -2.5197467e-04  -3.6383749e-04  -2.6464900e-04  -2.2242824e-04  -5.6213158e-05  -1.0859856e-04  -1.3043785e-04  -2.8165598e-04  -3.4406460e-04  -4.4391083e-04  -2.6643231e-04  -2.1621472e-04  -1.4969266e-04  -2.2467126e-04  -2.5232920e-04   1.5387722e-04   1.8865239e-04  -5.8697424e-05  -3.8762568e-04   0.0000000e+00  -4.2050507e-04   5.9330877e-05   2.1966054e-04  -1.2067321e-04  -1.8657956e-04   0.0000000e+00   0.0000000e+00  -1.5531841e-04   1.3911411e-04   1.7653853e-04  -4.8121564e-05   9.7451848e-06  -1.0461103e-04  -1.7428971e-04  -1.6488538e-04   5.5180693e-06   1.0871925e-04  -1.4934261e-04  -3.8552028e-04  -3.8983990e-04  -1.2797081e-04   6.3608751e-05   8.2331583e-07  -5.3112148e-05  -2.3186353e-04  -1.8109194e-04  -3.2203242e-04  -5.0168183e-04  -3.3027370e-04   5.6794573e-06  -5.6691958e-05  -4.7540161e-05  -1.4762069e-04  -1.0827132e-04  -1.4384363e-04  -1.0731912e-04  -2.1234442e-04   0.0000000e+00   4.3902478e-05  -1.9346911e-04  -2.5381073e-04  -8.7261117e-05  -1.2123359e-04   0.0000000e+00   0.0000000e+00  -1.9755992e-04  -3.2781116e-05  -4.8896408e-05  -6.8042388e-05   1.6782591e-05  -9.7767772e-06   1.0098365e-05  -2.1061793e-04  -1.2352774e-04   2.8640089e-05   1.9633274e-05   1.3014746e-05   1.7682594e-06  -1.3038830e-04  -1.2444749e-04  -4.1632517e-05   2.5038371e-05   4.2392172e-05   4.4586192e-05  -1.6583116e-05   8.5903618e-06  -9.2720810e-05  -4.0182970e-06  -2.6332513e-05  -2.4684235e-05  -3.1611730e-05  -1.0123703e-04  -1.3263563e-04  -1.5325255e-05  -1.5039160e-05   0.0000000e+00  -2.0559827e-04  -1.3364700e-04  -3.2872598e-04   5.9331887e-05   4.8235348e-06   0.0000000e+00   0.0000000e+00  -6.6350224e-05   6.6344650e-05   3.4085291e-05   1.5644715e-05  -4.5108775e-05   1.5870748e-05   1.1812121e-05   7.9101834e-05   4.1816387e-05   1.8334249e-05   4.9629941e-05   2.5762694e-05   1.6779627e-05  -2.9404223e-05   6.5616730e-05   1.8583191e-05   4.6725934e-05   4.2708717e-05   9.6118334e-05   8.7409581e-05   9.6307713e-05   1.0186972e-04   2.9144947e-05   4.2554704e-05   3.7153065e-05   7.3533388e-05  -1.1175264e-04  -1.2157629e-04   3.6347906e-05   7.8595213e-05   0.0000000e+00   2.4739760e-05  -1.0946660e-04  -1.6583727e-04   9.6369852e-06   4.1379417e-05   0.0000000e+00   0.0000000e+00  -7.7989175e-05  -2.0895283e-05  -1.3848787e-05   2.0437800e-05  -6.7029695e-06  -5.1525255e-06  -5.7159939e-06   1.4467009e-04  -8.3292727e-05  -2.1647294e-05  -3.4147837e-05  -2.8376459e-05   2.4234437e-06   6.8429593e-05   1.1530079e-04  -1.9292688e-05  -2.6251867e-05  -5.3908391e-05  -7.0202327e-05   7.3617216e-06  -1.3042919e-05   2.9987748e-05  -5.8316970e-06  -1.3896085e-05   7.0108892e-06  -1.9690345e-05   1.6292589e-05   5.0097258e-05  -3.4995755e-05  -3.2630800e-05   0.0000000e+00   9.1644833e-05   5.5050597e-05   1.6177697e-04  -3.6002440e-05  -1.8834098e-05   0.0000000e+00   0.0000000e+00   1.2799662e-05  -4.5415048e-05   8.6495196e-06   1.1895299e-05   5.7452217e-06   3.7873493e-05   5.0911090e-05  -6.2535565e-05  -6.4269162e-05  -1.5096632e-05   9.7921077e-05   9.5743861e-05   1.0205685e-04  -2.2086211e-04  -1.0883258e-04   3.3714188e-05   2.5105610e-05   8.9415949e-05   1.6327734e-04   1.1291101e-04   1.5173372e-04   4.3383225e-05   3.4356953e-05   1.4719395e-05  -3.0588753e-06   1.5129187e-05  -1.0501299e-04  -1.6267074e-04  -8.6652293e-06   1.6119171e-05   0.0000000e+00  -7.8218666e-06  -1.3703836e-04  -3.2052155e-04   2.8124893e-05   3.8570336e-05   0.0000000e+00   0.0000000e+00  -1.2442123e-04  -1.1852366e-04  -5.0599154e-05   2.8916914e-05  -7.1191779e-05  -1.1411439e-05  -4.0953872e-06  -4.6741277e-05   1.0047847e-05  -4.7873460e-05   4.3453675e-05   2.9980681e-05   6.8500612e-05  -7.9493114e-05  -4.7367211e-05   5.7259677e-05  -1.1324376e-05   3.1999453e-05   7.0980575e-05   4.1714481e-05   4.3247053e-05  -3.0480921e-05  -5.1694693e-06  -1.8571101e-05  -5.5488008e-05  -4.2905598e-05  -8.6098994e-05  -1.3608125e-04  -3.8997172e-05  -7.2327890e-06   0.0000000e+00  -5.6580611e-05  -1.0979574e-04  -1.9092230e-04   2.4113550e-05   4.6534323e-06   0.0000000e+00   0.0000000e+00  -2.9373252e-04   2.3328319e-04   1.9616628e-04   2.3102995e-04   2.8107836e-04   1.8536446e-04   1.9143912e-04   3.4143446e-04   2.8556190e-05   2.0222731e-04   2.3352714e-04   1.9423143e-04   2.1839472e-04  -1.6559592e-05   2.4781254e-04   4.1622784e-05   2.1396694e-04   1.1987919e-04   1.9891991e-04   2.2408026e-04   2.5740412e-04   2.0440609e-04   2.1268939e-04   1.8133282e-04   2.6035948e-04   2.3898577e-04   7.5753684e-05   5.1887150e-05   1.5102406e-04   1.4989491e-04   0.0000000e+00   6.4295692e-04   1.3113691e-04   2.0853682e-04   1.5453553e-04   1.4186149e-04   0.0000000e+00   0.0000000e+00   1.6554032e-04  -1.2884947e-04  -4.1244493e-04  -3.5490028e-04  -4.6166308e-04  -2.4703490e-04  -1.0721057e-04  -2.0226419e-04  -9.4912582e-05  -7.8416932e-05  -3.5207351e-04  -2.1217228e-04  -1.8841322e-04  -3.9875099e-04   1.4974697e-06   1.7909813e-05  -2.1746373e-04  -1.3597626e-04  -1.9557003e-04  -1.9424138e-04  -3.5647835e-04  -3.5785407e-04  -3.8792306e-04  -2.1856801e-04  -6.2695045e-04  -4.3715260e-04  -7.4886335e-05  -7.2493056e-05  -3.0620832e-04  -5.3582420e-04   0.0000000e+00  -1.3145613e-04  -1.5941297e-04  -2.7104658e-04  -1.4088093e-04  -3.2104306e-04   0.0000000e+00   0.0000000e+00  -1.4900069e-04
  -6.0880939e-06  -1.0551708e-04  -1.4571458e-04  -2.1675793e-04  -1.3863961e-04  -1.3691562e-04   7.4686418e-05  -5.0024890e-05  -1.6719558e-04  -2.8431190e-04  -2.5452667e-04  -1.8660553e-04   1.4518849e-05   1.3718732e-04  -8.7919544e-05  -2.5192213e-04  -3.1203421e-04  -3.2626116e-04  -2.1736432e-04  -2.5900751e-04  -2.0295351e-04  -1.3817655e-04  -1.3805030e-04  -2.0517920e-04  -1.9932414e-04  -2.3963093e-05   5.6749075e-06  -8.4144831e-05  -2.0393308e-04   0.0000000e+00  -5.5605263e-05  -2.2353688e-05   3.6541843e-05  -1.3954602e-04  -1.7805983e-04   0.0000000e+00   0.0000000e+00  -3.2636761e-05   7.9770107e-05  -1.9796194e-04  -1.1934787e-04  -1.4639540e-04  -1.8288265e-04  -1.5428214e-04  -3.0104017e-04  -1.0290018e-04   7.2803401e-06  -2.2706536e-04  -2.7897454e-04  -3.8630404e-04  -2.8583761e-04  -2.3067001e-04  -5.9157690e-05  -1.3396663e-04  -1.5199257e-04  -3.0874635e-04  -3.7083977e-04  -4.8063957e-04  -2.8878653e-04  -2.4160864e-04  -1.6790157e-04  -2.5490283e-04  -2.8549928e-04   1.5748600e-04   1.9174344e-04  -8.3974021e-05  -4.1480357e-04   0.0000000e+00  -4.5461713e-04   6.4060171e-05   2.4147104e-04  -1.3829265e-04  -2.0656665e-04   0.0000000e+00   0.0000000e+00  -2.1456920e-04   1.4778065e-04   1.9381658e-04  -4.7228571e-05   5.4736738e-06  -9.1463201e-05  -1.6286799e-04  -1.7412172e-04   1.0476009e-05   1.0999147e-04  -1.5307047e-04  -3.8148688e-04  -3.6840812e-04  -1.1718465e-04   7.6092588e-05  -1.9751921e-06  -6.2544990e-05  -2.3454842e-04  -1.7892007e-04  -3.0019442e-04  -4.7803574e-04  -3.0963201e-04   1.9820892e-05  -3.7992034e-05  -4.0893807e-05  -1.4275680e-04  -9.9380476e-05  -1.6414237e-04  -1.1110107e-04  -1.8654664e-04   0.0000000e+00   6.1404983e-05  -1.8402060e-04  -2.4836818e-04  -6.8378869e-05  -1.0312284e-04   0.0000000e+00   0.0000000e+00  -2.1714782e-04  -4.5680082e-05  -5.4670942e-05  -8.3173131e-05   1.0812423e-05  -1.7848763e-05   1.0725566e-05  -2.2872595e-04  -1.2525019e-04   2.0933895e-05   2.0233823e-05   1.5496568e-05   4.7782022e-06  -1.3592015e-04  -1.3661334e-04  -4.2819889e-05   1.9309421e-05   4.7514280e-05   4.9340111e-05  -2.0117824e-05   1.2476586e-05  -9.6197437e-05  -1.3818870e-05  -2.5527685e-05  -2.4683243e-05  -3.8278933e-05  -1.2045629e-04  -1.5691719e-04  -1.7378376e-05  -7.6039852e-06   0.0000000e+00  -2.2019701e-04  -1.5139275e-04  -3.6547829e-04   5.9128056e-05   7.9677035e-06   0.0000000e+00   0.0000000e+00  -5.9199252e-05   4.3655927e-05   2.9383712e-05   1.9864739e-05  -4.8972913e-05   1.5442533e-05   2.4487464e-06   7.9301334e-05   4.9930296e-05   1.5100776e-05   5.1331887e-05   2.3833428e-05   9.0066063e-06  -3.2807506e-05   6.9989039e-05   1.9931015e-05   4.4837657e-05   4.3514061e-05   9.7162194e-05   7.4960035e-05   8.8096244e-05   9.5310617e-05   2.8304033e-05   3.5264401e-05   3.6136649e-05   7.8487180e-05  -1.3651755e-04  -1.4031172e-04   4.0291153e-05   7.9595114e-05   0.0000000e+00   6.9140799e-06  -1.2962642e-04  -1.9291494e-04   6.0677348e-06   3.6231238e-05   0.0000000e+00   0.0000000e+00  -8.7220179e-05  -4.1848771e-05  -2.7916961e-05   1.5081595e-05  -1.9514597e-05  -1.3047182e-05  -1.4694610e-05   1.4093993e-04  -9.1010777e-05  -3.0216705e-05  -4.7788220e-05  -3.8264980e-05  -9.7884229e-06   6.0018386e-05   1.1732520e-04  -2.2171406e-05  -3.8625253e-05  -6.0021070e-05  -8.0334414e-05  -3.8690719e-06  -2.9586332e-05   2.1683196e-05  -1.6033333e-05  -2.2358903e-05  -7.1589732e-06  -2.8208195e-05   1.7928474e-05   5.4569505e-05  -4.1802153e-05  -4.0089685e-05   0.0000000e+00   7.8685102e-05   5.5197767e-05   1.7044562e-04  -4.4994410e-05  -2.7247590e-05   0.0000000e+00   0.0000000e+00   2.1275767e-06  -5.2233796e-05   1.2534430e-05   2.4176016e-05   1.7104142e-05   4.2668617e-05   5.0529141e-05  -7.1309523e-05  -6.3270504e-05  -7.3346955e-06   1.0377606e-04   9.8908770e-05   1.0162098e-04  -2.2204660e-04  -1.1678881e-04   3.2768136e-05   2.9304374e-05   9.2126838e-05   1.6985009e-04   1.1170272e-04   1.5657726e-04   3.8727170e-05   4.0238553e-05   1.3227015e-05   6.2699634e-06   3.4987156e-05  -1.1881463e-04  -1.7689468e-04   2.6332250e-07   3.0763738e-05   0.0000000e+00  -1.7064304e-05  -1.5144426e-04  -3.4234463e-04   3.1448280e-05   4.3992505e-05   0.0000000e+00   0.0000000e+00  -1.2267118e-04  -1.2933760e-04  -4.6487508e-05   4.3112478e-05  -5.6722859e-05  -3.3697162e-06   1.7972435e-06  -4.0090807e-05   1.9137080e-05  -3.9072074e-05   5.7158303e-05   4.6818903e-05   8.2266402e-05  -7.6089306e-05  -4.7379025e-05   6.0604525e-05  -1.4009848e-06   4.7899092e-05   9.2775406e-05   5.3947410e-05   6.4027856e-05  -2.3114672e-05   5.4921016e-06  -1.6100826e-05  -5.1148249e-05  -2.6458240e-05  -1.1193091e-04  -1.6863889e-04  -3.0118666e-05   1.2945549e-05   0.0000000e+00  -5.2881946e-05  -1.3292590e-04  -2.5122834e-04   3.7411924e-05   1.6436706e-05   0.0000000e+00   0.0000000e+00  -3.0273738e-04   2.1230948e-04   1.8603356e-04   2.4300738e-04   2.8273191e-04   1.8713430e-04   1.8594841e-04   3.3678080e-04   2.2516113e-05   1.9895281e-04   2.3290621e-04   1.8918882e-04   2.1297102e-04  -1.1892993e-05   2.4665684e-04   4.2088252e-05   2.1403348e-04   1.1393442e-04   1.9485448e-04   2.1786255e-04   2.4591591e-04   2.0853169e-04   2.1347447e-04   1.7854096e-04   2.6263406e-04   2.3874102e-04   8.1333514e-05   7.1152676e-05   1.4405972e-04   1.3655796e-04   0.0000000e+00   6.3843014e-04   1.4259293e-04   2.5087287e-04   1.4723220e-04   1.3136926e-04   0.0000000e+00   0.0000000e+00   1.7924989e-04  -1.4423756e-04  -4.1122045e-04  -3.5481559e-04  -4.6403306e-04  -2.4390235e-04  -9.9557680e-05  -2.0172526e-04  -8.6186811e-05  -7.5726458e-05  -3.4192367e-04  -2.0257210e-04  -1.6645008e-04  -3.8646987e-04   1.5951538e-05   2.6877857e-05  -2.0408020e-04  -1.2953079e-04  -1.7759117e-04  -1.7584549e-04  -3.3665763e-04  -3.4116231e-04  -3.8022647e-04  -2.1344387e-04  -6.0976612e-04  -4.2261298e-04  -7.6137589e-05  -8.4373553e-05  -3.0510688e-04  -5.0154951e-04   0.0000000e+00  -1.0035546e-04  -1.5567300e-04  -2.6959534e-04  -1.2603759e-04  -2.9356945e-04   0.0000000e+00   0.0000000e+00  -1.5449009e-04
  -1.8376904e-05  -1.1773666e-04  -1.6054421e-04  -2.3338016e-04  -1.4499640e-04  -1.3760810e-04   6.6014216e-05  -5.5075347e-05  -1.7523828e-04  -2.9082455e-04  -2.5704059e-04  -1.8390631e-04   2.1748281e-05   1.3769976e-04  -8.6876170e-05  -2.6107101e-04  -3.1450572e-04  -3.2773115e-04  -2.1388412e-04  -2.5757540e-04  -2.0593960e-04  -1.4741224e-04  -1.4009381e-04  -2.2167040e-04  -2.1575005e-04  -1.8897543e-05   7.9520242e-06  -9.3973613e-05  -2.1367336e-04   0.0000000e+00  -5.8531649e-05  -1.9198099e-05   3.8131257e-05  -1.3989667e-04  -1.7993848e-04   0.0000000e+00   0.0000000e+00  -4.1880422e-05   5.1620679e-05  -2.3151056e-04  -1.3747358e-04  -1.7791569e-04  -1.9871043e-04  -1.6835192e-04  -3.1414491e-04  -1.1571222e-04  -2.1212594e-05  -2.5239605e-04  -2.9893756e-04  -3.9988105e-04  -3.0386601e-04  -2.3478074e-04  -5.9398646e-05  -1.5481059e-04  -1.6861446e-04  -3.2745029e-04  -3.8935242e-04  -5.0622117e-04  -3.0447746e-04  -2.6067637e-04  -1.8173369e-04  -2.7917092e-04  -3.1331183e-04   1.6037344e-04   1.9252610e-04  -1.0769523e-04  -4.3491066e-04   0.0000000e+00  -4.7814946e-04   6.9270970e-05   2.6063439e-04  -1.5241888e-04  -2.2169615e-04   0.0000000e+00   0.0000000e+00  -2.7175970e-04   1.5454106e-04   2.1115990e-04  -4.6506825e-05   1.2514647e-06  -7.6576505e-05  -1.4951278e-04  -1.8167011e-04   1.3169248e-05   1.0893753e-04  -1.5612843e-04  -3.7304141e-04  -3.4194762e-04  -1.0555814e-04   8.7515849e-05  -6.8532851e-06  -7.3495015e-05  -2.3557069e-04  -1.7608478e-04  -2.7479800e-04  -4.4708562e-04  -2.8349904e-04   3.5794180e-05  -1.7517576e-05  -3.0293872e-05  -1.3415725e-04  -8.8555889e-05  -1.8161610e-04  -1.1279064e-04  -1.5584404e-04   0.0000000e+00   8.0786548e-05  -1.7120137e-04  -2.3888246e-04  -4.8432748e-05  -8.3042246e-05   0.0000000e+00   0.0000000e+00  -2.3103099e-04  -5.7800349e-05  -5.9027701e-05  -9.8354028e-05   4.8331479e-06  -2.5855454e-05   1.2458411e-05  -2.4324777e-04  -1.2396815e-04   1.1909920e-05   2.1975760e-05   1.9473374e-05   9.4157260e-06  -1.3953834e-04  -1.4699442e-04  -4.2546121e-05   1.3462447e-05   5.3791981e-05   5.5464836e-05  -2.2116002e-05   1.8483022e-05  -9.6429053e-05  -2.3989835e-05  -2.2751522e-05  -2.3976797e-05  -4.4421687e-05  -1.3826253e-04  -1.7973266e-04  -1.8616912e-05   9.0810776e-07   0.0000000e+00  -2.3104049e-04  -1.6732832e-04  -3.9850128e-04   5.8009351e-05   1.2024853e-05   0.0000000e+00   0.0000000e+00  -5.0535516e-05   1.9201803e-05   2.4944895e-05   2.5139034e-05  -5.1480166e-05   1.6403525e-05  -6.1934640e-06   7.9219421e-05   5.8396664e-05   1.2754691e-05   5.3503124e-05   2.3711899e-05   2.4851349e-06  -3.4205526e-05   7.3359596e-05   2.1907644e-05   4.3464173e-05   4.5578637e-05   9.9979922e-05   6.3720690e-05   8.1279572e-05   8.8408884e-05   2.8855492e-05   2.8351451e-05   3.5308043e-05   8.4283915e-05  -1.6115217e-04  -1.5840542e-04   4.5040882e-05   8.3027769e-05   0.0000000e+00  -1.0227499e-05  -1.4856209e-04  -2.1863424e-04   3.6449358e-06   3.2372281e-05   0.0000000e+00   0.0000000e+00  -9.4797553e-05  -6.3371954e-05  -4.1766163e-05   1.0608420e-05  -3.1464686e-05  -1.9694826e-05  -2.3220040e-05   1.3682161e-04  -9.7169749e-05  -3.7480003e-05  -5.9763062e-05  -4.6358066e-05  -2.1246076e-05   5.0987932e-05   1.1810194e-04  -2.3919067e-05  -4.8931476e-05  -6.3939013e-05  -8.8029794e-05  -1.4211522e-05  -4.5266618e-05   1.3779372e-05  -2.5077673e-05  -2.9781149e-05  -2.0901915e-05  -3.5484022e-05   2.1200829e-05   5.9991615e-05  -4.8049845e-05  -4.6781159e-05   0.0000000e+00   6.7267985e-05   5.6103159e-05   1.7867220e-04  -5.2413357e-05  -3.4581081e-05   0.0000000e+00   0.0000000e+00  -9.3323467e-06  -5.9033187e-05   1.7036911e-05   3.6704203e-05   2.9590626e-05   4.7815116e-05   5.0773038e-05  -8.1336247e-05  -6.2008336e-05   1.9752546e-06   1.0998604e-04   1.0228370e-04   1.0149786e-04  -2.1795711e-04  -1.2362650e-04   3.1501264e-05   3.4231785e-05   9.5583162e-05   1.7575351e-04   1.1082629e-04   1.6133565e-04   3.5229877e-05   4.6467276e-05   1.2847094e-05   1.6307040e-05   5.5423939e-05  -1.2865192e-04  -1.8647110e-04   9.8450482e-06   4.6651290e-05   0.0000000e+00  -2.5389591e-05  -1.6156786e-04  -3.5694508e-04   3.6269884e-05   5.0275327e-05   0.0000000e+00   0.0000000e+00  -1.1749551e-04  -1.3900325e-04  -4.2550094e-05   5.7723606e-05  -3.9777994e-05   5.1447398e-06   7.7569820e-06  -3.3541549e-05   2.8806917e-05  -2.8074654e-05   7.1444664e-05   6.4971123e-05   9.5331966e-05  -7.0923630e-05  -4.7500192e-05   6.3658015e-05   9.8603231e-06   6.5402849e-05   1.1563329e-04   6.5575867e-05   8.4295904e-05  -1.5571880e-05   1.5365996e-05  -1.2942508e-05  -4.7263084e-05  -1.0711828e-05  -1.3519308e-04  -1.9768571e-04  -2.0762501e-05   3.1817371e-05   0.0000000e+00  -4.8666305e-05  -1.5377037e-04  -3.0903074e-04   5.1591873e-05   2.8061785e-05   0.0000000e+00   0.0000000e+00  -3.0943816e-04   1.8886660e-04   1.7465011e-04   2.5079058e-04   2.8134028e-04   1.8650668e-04   1.7928886e-04   3.2871880e-04   1.9668560e-05   1.9150970e-04   2.3102566e-04   1.8331765e-04   2.0699116e-04  -3.8866274e-06   2.4144643e-04   4.3379643e-05   2.1206761e-04   1.0893267e-04   1.9153017e-04   2.1039643e-04   2.3420911e-04   2.1192924e-04   2.1104003e-04   1.7444831e-04   2.6341359e-04   2.3538303e-04   8.1425669e-05   8.4350084e-05   1.3547725e-04   1.2443517e-04   0.0000000e+00   6.2807989e-04   1.4925382e-04   2.8430144e-04   1.3813800e-04   1.2137580e-04   0.0000000e+00   0.0000000e+00   1.9613977e-04  -1.5811633e-04  -4.0305121e-04  -3.4979486e-04  -4.6045383e-04  -2.3734915e-04  -8.9435996e-05  -1.9866455e-04  -7.5981533e-05  -7.1277792e-05  -3.2641627e-04  -1.9011647e-04  -1.4011000e-04  -3.6863109e-04   3.0881177e-05   3.5581492e-05  -1.8742266e-04  -1.2197069e-04  -1.5719036e-04  -1.5339431e-04  -3.1034992e-04  -3.1846563e-04  -3.6643669e-04  -2.0407643e-04  -5.8262600e-04  -4.0191713e-04  -7.4697410e-05  -9.3720903e-05  -2.9952208e-04  -4.5909232e-04   0.0000000e+00  -6.2884094e-05  -1.4849977e-04  -2.6262441e-04  -1.0874478e-04  -2.6148578e-04   0.0000000e+00   0.0000000e+00  -1.5611473e-04
  -3.0464726e-05  -1.2906366e-04  -1.7282054e-04  -2.4776800e-04  -1.4945007e-04  -1.3651795e-04   5.7356029e-05  -5.9634760e-05  -1.8146648e-04  -2.9370182e-04  -2.5629170e-04  -1.7841506e-04   2.7257434e-05   1.3748146e-04  -8.4226259e-05  -2.6703011e-04  -3.1342728e-04  -3.2494647e-04  -2.0706945e-04  -2.5293806e-04  -2.0605633e-04  -1.5507960e-04  -1.4056256e-04  -2.3588454e-04  -2.3011092e-04  -1.3031688e-05   1.1034880e-05  -1.0306377e-04  -2.2203808e-04   0.0000000e+00  -6.0775197e-05  -1.5428223e-05   4.1207496e-05  -1.3882330e-04  -1.8038487e-04   0.0000000e+00   0.0000000e+00  -5.1891212e-05   2.3957292e-05  -2.5966475e-04  -1.5215091e-04  -2.0476831e-04  -2.0953440e-04  -1.7769984e-04  -3.1983851e-04  -1.2526800e-04  -4.8091312e-05  -2.7055611e-04  -3.1131214e-04  -4.0445391e-04  -3.1826167e-04  -2.3490185e-04  -5.7006474e-05  -1.7049437e-04  -1.7971604e-04  -3.3744109e-04  -3.9922271e-04  -5.2016670e-04  -3.1312855e-04  -2.7313833e-04  -1.9077678e-04  -2.9699470e-04  -3.3533060e-04   1.6275694e-04   1.9129666e-04  -1.2904007e-04  -4.4794998e-04   0.0000000e+00  -4.9087144e-04   7.4939096e-05   2.7680238e-04  -1.6269522e-04  -2.3175474e-04   0.0000000e+00   0.0000000e+00  -3.2506492e-04   1.5907712e-04   2.2762318e-04  -4.6822165e-05  -3.9478764e-06  -6.1409887e-05  -1.3544851e-04  -1.8778677e-04   1.3118127e-05   1.0522353e-04  -1.5952439e-04  -3.6175228e-04  -3.1244238e-04  -9.4446585e-05   9.7236819e-05  -1.3813626e-05  -8.6316504e-05  -2.3575323e-04  -1.7371834e-04  -2.4772470e-04  -4.1132754e-04  -2.5410786e-04   5.2241308e-05   3.1454159e-06  -1.7193335e-05  -1.2315723e-04  -7.6708512e-05  -1.9589168e-04  -1.1296643e-04  -1.2255480e-04   0.0000000e+00   1.0120006e-04  -1.5614587e-04  -2.2654847e-04  -2.8841104e-05  -6.2665795e-05   0.0000000e+00   0.0000000e+00  -2.3914489e-04  -6.8458125e-05  -6.1725289e-05  -1.1289887e-04  -6.6857930e-07  -3.3364464e-05   1.5391120e-05  -2.5391623e-04  -1.1953899e-04   2.1555917e-06   2.5081704e-05   2.5059410e-05   1.5662184e-05  -1.4066895e-04  -1.5541362e-04  -4.0787232e-05   7.9652395e-06   6.1322905e-05   6.3036906e-05  -2.2339801e-05   2.6630369e-05  -9.3366766e-05  -3.4015199e-05  -1.7995725e-05  -2.2529911e-05  -4.9707159e-05  -1.5407237e-04  -2.0037075e-04  -1.8917498e-05   1.0213681e-05   0.0000000e+00  -2.3759571e-04  -1.8105471e-04  -4.2719537e-04   5.6177967e-05   1.6933967e-05   0.0000000e+00   0.0000000e+00  -4.0762396e-05  -5.9998123e-06   2.1392915e-05   3.1789055e-05  -5.2002333e-05   1.9094904e-05  -1.3450220e-05   7.9317220e-05   6.7203798e-05   1.1959273e-05   5.6634562e-05   2.5810225e-05  -2.1804827e-06  -3.3582727e-05   7.5744688e-05   2.4655987e-05   4.3300155e-05   4.9347891e-05   1.0513829e-04   5.4702619e-05   7.6740603e-05   8.2035352e-05   3.1197414e-05   2.2488774e-05   3.5305851e-05   9.1302394e-05  -1.8444063e-04  -1.7484256e-04   5.0797199e-05   8.9330667e-05   0.0000000e+00  -2.5176998e-05  -1.6518317e-04  -2.4147325e-04   2.8215855e-06   3.0362338e-05   0.0000000e+00   0.0000000e+00  -9.9959141e-05  -8.4402965e-05  -5.4582742e-05   7.1965788e-06  -4.1831370e-05  -2.4648152e-05  -3.0630928e-05   1.3294543e-04  -1.0140689e-04  -4.3158024e-05  -6.9120468e-05  -5.1835848e-05  -3.1003198e-05   4.1543415e-05   1.1730949e-04  -2.4320635e-05  -5.6446003e-05  -6.5060678e-05  -9.2566236e-05  -2.2839391e-05  -5.8920535e-05   7.1481688e-06  -3.2485054e-05  -3.5578205e-05  -3.3303377e-05  -4.1138125e-05   2.6040516e-05   6.6086811e-05  -5.3490176e-05  -5.2230426e-05   0.0000000e+00   5.8292855e-05   5.7928890e-05   1.8631493e-04  -5.7853193e-05  -4.0258127e-05   0.0000000e+00   0.0000000e+00  -2.1236904e-05  -6.5406050e-05   2.2191838e-05   4.9050017e-05   4.3008626e-05   5.3240561e-05   5.1821795e-05  -9.2594769e-05  -6.0729485e-05   1.2671156e-05   1.1669598e-04   1.0597972e-04   1.0187438e-04  -2.0883939e-04  -1.2953794e-04   2.9942979e-05   3.9996638e-05   1.0001298e-04   1.8105294e-04   1.1050573e-04   1.6610694e-04   3.3124916e-05   5.2947914e-05   1.3755765e-05   2.6926064e-05   7.5818710e-05  -1.3425741e-04  -1.9130277e-04   1.9765648e-05   6.3425539e-05   0.0000000e+00  -3.2404407e-05  -1.6729706e-04  -3.6467882e-04   4.2583296e-05   5.7410869e-05   0.0000000e+00   0.0000000e+00  -1.0906466e-04  -1.4716081e-04  -3.9036188e-05   7.2312407e-05  -2.0681701e-05   1.3873721e-05   1.3585983e-05  -2.7271948e-05   3.8862081e-05  -1.5139456e-05   8.6050589e-05   8.4091892e-05   1.0725486e-04  -6.4016945e-05  -4.7829563e-05   6.6459877e-05   2.2306938e-05   8.4252181e-05   1.3905050e-04   7.6163025e-05   1.0323228e-04  -8.1583139e-06   2.4014659e-05  -9.1108412e-06  -4.3921594e-05   3.7131700e-06  -1.5497529e-04  -2.2207202e-04  -1.1286191e-05   4.8560932e-05   0.0000000e+00  -4.3997933e-05  -1.7158155e-04  -3.6237195e-04   6.6284194e-05   3.9108025e-05   0.0000000e+00   0.0000000e+00  -3.1371148e-04   1.6478483e-04   1.6304823e-04   2.5435574e-04   2.7743217e-04   1.8377168e-04   1.7214034e-04   3.1855546e-04   2.0274471e-05   1.8034090e-04   2.2847888e-04   1.7722097e-04   2.0112813e-04   6.6506800e-06   2.3282577e-04   4.5443932e-05   2.0836564e-04   1.0535525e-04   1.8939334e-04   2.0235561e-04   2.2326251e-04   2.1490906e-04   2.0576587e-04   1.6965548e-04   2.6328038e-04   2.2954047e-04   7.5953950e-05   9.0696931e-05   1.2604556e-04   1.1446840e-04   0.0000000e+00   6.1342830e-04   1.5087685e-04   3.0700430e-04   1.2780286e-04   1.1262818e-04   0.0000000e+00   0.0000000e+00   2.1573113e-04  -1.7010670e-04  -3.8888674e-04  -3.4066765e-04  -4.5193195e-04  -2.2811417e-04  -7.7336893e-05  -1.9365061e-04  -6.4948826e-05  -6.5393056e-05  -3.0678097e-04  -1.7564913e-04  -1.1072137e-04  -3.4675663e-04   4.5630802e-05   4.3642256e-05  -1.6854294e-04  -1.1385326e-04  -1.3552411e-04  -1.2799064e-04  -2.7899757e-04  -2.9122425e-04  -3.4767728e-04  -1.9114635e-04  -5.4753745e-04  -3.7650213e-04  -7.0631441e-05  -1.0007211e-04  -2.9008657e-04  -4.1102045e-04   0.0000000e+00  -2.0523396e-05  -1.3835632e-04  -2.5061937e-04  -9.0062144e-05  -2.2671286e-04   0.0000000e+00   0.0000000e+00  -1.5400629e-04
  -4.2197813e-05  -1.3930859e-04  -1.8221146e-04  -2.5975324e-04  -1.5201492e-04  -1.3391148e-04   4.9117962e-05  -6.3639426e-05  -1.8590313e-04  -2.9321229e-04  -2.5262667e-04  -1.7054265e-04   3.0436742e-05   1.3678557e-04  -8.0174063e-05  -2.6995090e-04  -3.0930019e-04  -3.1834498e-04  -1.9742918e-04  -2.4554051e-04  -2.0372391e-04  -1.6102748e-04  -1.3975025e-04  -2.4756324e-04  -2.4203857e-04  -7.1332182e-06   1.4233901e-05  -1.1120360e-04  -2.2885368e-04   0.0000000e+00  -6.2495164e-05  -1.1697302e-05   4.4897824e-05  -1.3656517e-04  -1.7960178e-04   0.0000000e+00   0.0000000e+00  -6.2616700e-05  -2.2982674e-06  -2.8185236e-04  -1.6320389e-04  -2.2639862e-04  -2.1535692e-04  -1.8214135e-04  -3.1831196e-04  -1.3125410e-04  -7.2404209e-05  -2.8131218e-04  -3.1604077e-04  -4.0044612e-04  -3.2872581e-04  -2.3136080e-04  -5.2239089e-05  -1.8073295e-04  -1.8509024e-04  -3.3892909e-04  -4.0054032e-04  -5.2265123e-04  -3.1480040e-04  -2.7907780e-04  -1.9491516e-04  -3.0828511e-04  -3.5142866e-04   1.6480104e-04   1.8842089e-04  -1.4733791e-04  -4.5426121e-04   0.0000000e+00  -4.9312874e-04   8.0962681e-05   2.8981714e-04  -1.6901617e-04  -2.3682946e-04   0.0000000e+00   0.0000000e+00  -3.7288488e-04   1.6110531e-04   2.4208912e-04  -4.9114499e-05  -1.1350843e-05  -4.7563245e-05  -1.2202165e-04  -1.9286919e-04   9.9783332e-06   9.8555989e-05  -1.6441753e-04  -3.4944759e-04  -2.8212463e-04  -8.5251740e-05   1.0467766e-04  -2.2762137e-05  -1.0136863e-04  -2.3601764e-04  -1.7301985e-04  -2.2100827e-04  -3.7361446e-04  -2.2401521e-04   6.7599341e-05   2.2224810e-05  -3.4487894e-06  -1.1139023e-04  -6.4923957e-05  -2.0685254e-04  -1.1241799e-04  -8.9312739e-05   0.0000000e+00   1.2158500e-04  -1.4021726e-04  -2.1284039e-04  -1.1091187e-05  -4.3821283e-05   0.0000000e+00   0.0000000e+00  -2.4189484e-04  -7.7001744e-05  -6.2590741e-05  -1.2612962e-04  -5.2031596e-06  -3.9953377e-05   1.9544685e-05  -2.6066177e-04  -1.1197197e-04  -7.6644781e-06   2.9698257e-05   3.2267396e-05   2.3393432e-05  -1.3883512e-04  -1.6179905e-04  -3.7608165e-05   3.2808975e-06   7.0120611e-05   7.2037667e-05  -2.0653011e-05   3.6810765e-05  -8.7156360e-05  -4.3354950e-05  -1.1374284e-05  -2.0321841e-05  -5.3810828e-05  -1.6743104e-04  -2.1828897e-04  -1.8199686e-05   2.0007197e-05   0.0000000e+00  -2.3948146e-04  -1.9230797e-04  -4.5121211e-04   5.3872565e-05   2.2592203e-05   0.0000000e+00   0.0000000e+00  -3.0302873e-05  -3.0871397e-05   1.9332752e-05   4.0114486e-05  -4.9927621e-05   2.3795613e-05  -1.8699809e-05   8.0075274e-05   7.6369418e-05   1.3343175e-05   6.1242104e-05   3.0467978e-05  -4.4301419e-06  -3.1037758e-05   7.7287641e-05   2.8294126e-05   4.5029065e-05   5.5213320e-05   1.1307900e-04   4.8812493e-05   7.5241899e-05   7.7081880e-05   3.5634469e-05   1.8319002e-05   3.6772225e-05   9.9884191e-05  -2.0508895e-04  -1.8853673e-04   5.7745317e-05   9.8738418e-05   0.0000000e+00  -3.6546838e-05  -1.7839936e-04  -2.5980834e-04   3.9973151e-06   3.0647509e-05   0.0000000e+00   0.0000000e+00  -1.0201755e-04  -1.0387482e-04  -6.5589921e-05   4.9625110e-06  -4.9968873e-05  -2.7552413e-05  -3.6307570e-05   1.2988629e-04  -1.0345389e-04  -4.7051881e-05  -7.5029955e-05  -5.4000944e-05  -3.8195010e-05   3.1861718e-05   1.1464263e-04  -2.3235453e-05  -6.0587877e-05  -6.2909471e-05  -9.3368039e-05  -2.9001707e-05  -6.9468036e-05   2.6382426e-06  -3.7866571e-05  -3.9242099e-05  -4.3503737e-05  -4.4852832e-05   3.2307690e-05   7.2555331e-05  -5.7892142e-05  -5.6007715e-05   0.0000000e+00   5.2433417e-05   6.0810965e-05   1.9335261e-04  -6.1030967e-05  -4.3781557e-05   0.0000000e+00   0.0000000e+00  -3.3233016e-05  -7.0948689e-05   2.7989564e-05   6.0777040e-05   5.7086781e-05   5.8823068e-05   5.3764359e-05  -1.0498858e-04  -5.9688347e-05   2.4489349e-05   1.2397054e-04   1.1002594e-04   1.0283194e-04  -1.9526455e-04  -1.3481524e-04   2.8083334e-05   4.6625897e-05   1.0551013e-04   1.8574391e-04   1.1083628e-04   1.7089397e-04   3.2472806e-05   5.9549974e-05   1.6012594e-05   3.7974352e-05   9.5559228e-05  -1.3571354e-04  -1.9164954e-04   2.9686399e-05   8.0678958e-05   0.0000000e+00  -3.7818499e-05  -1.6885827e-04  -3.6639900e-04   5.0246288e-05   6.5307038e-05   0.0000000e+00   0.0000000e+00  -9.7719774e-05  -1.5346053e-04  -3.6130771e-05   8.6460648e-05   1.7952431e-07   2.2554106e-05   1.9087604e-05  -2.1361828e-05   4.9112113e-05  -6.2615805e-07   1.0068458e-04   1.0376856e-04   1.1761046e-04  -5.5465984e-05  -4.8434988e-05   6.9043034e-05   3.5741427e-05   1.0410450e-04   1.6245499e-04   8.5294633e-05   1.2005011e-04  -1.1721782e-06   3.1102293e-05  -4.6575813e-06  -4.1105480e-05   1.6346593e-05  -1.7059730e-04  -2.4091990e-04  -2.0274692e-06   6.2527306e-05   0.0000000e+00  -3.8922159e-05  -1.8580109e-04  -4.0954969e-04   8.1079591e-05   4.9185223e-05   0.0000000e+00   0.0000000e+00  -3.1545378e-04   1.4185457e-04   1.5215420e-04   2.5399643e-04   2.7157868e-04   1.7931760e-04   1.6511202e-04   3.0762318e-04   2.4220409e-05   1.6613044e-04   2.2576548e-04   1.7138692e-04   1.9589676e-04   1.8582963e-05   2.2158703e-04   4.8102883e-05   2.0325735e-04   1.0346406e-04   1.8864589e-04   1.9433092e-04   2.1380549e-04   2.1767657e-04   1.9817782e-04   1.6470349e-04   2.6269586e-04   2.2193213e-04   6.5285803e-05   9.0001666e-05   1.1651624e-04   1.0729887e-04   0.0000000e+00   5.9609885e-04   1.4759844e-04   3.1800213e-04   1.1681168e-04   1.0565629e-04   0.0000000e+00   0.0000000e+00   2.3716572e-04  -1.7997632e-04  -3.6999769e-04  -3.2844992e-04  -4.3971940e-04  -2.1706688e-04  -6.3886700e-05  -1.8734921e-04  -5.3777935e-05  -5.8464983e-05  -2.8444496e-04  -1.6011094e-04  -7.9845603e-05  -3.2252299e-04   5.9563970e-05   5.0711107e-05  -1.4858092e-04  -1.0575010e-04  -1.1379038e-04  -1.0092237e-04  -2.4433796e-04  -2.6114402e-04  -3.2530751e-04  -1.7553513e-04  -5.0683759e-04  -3.4795230e-04  -6.4192713e-05  -1.0316727e-04  -2.7758858e-04  -3.6009717e-04   0.0000000e+00   2.4950044e-05  -1.2587552e-04  -2.3435133e-04  -7.1130366e-05  -1.9126691e-04   0.0000000e+00   0.0000000e+00  -1.4853593e-04
  -5.3482435e-05  -1.4831895e-04  -1.8851564e-04  -2.6923807e-04  -1.5276831e-04  -1.3009786e-04   4.1642818e-05  -6.7038473e-05  -1.8862000e-04  -2.8972239e-04  -2.4647245e-04  -1.6077120e-04   3.0835908e-05   1.3584444e-04  -7.4977935e-05  -2.7008396e-04  -3.0269058e-04  -3.0846152e-04  -1.8556160e-04  -2.3588498e-04  -1.9944382e-04  -1.6515619e-04  -1.3797870e-04  -2.5653973e-04  -2.5123750e-04  -1.9875502e-06   1.6814133e-05  -1.1820485e-04  -2.3394392e-04   0.0000000e+00  -6.3885434e-05  -8.6702345e-06   4.8219677e-05  -1.3337184e-04  -1.7778663e-04   0.0000000e+00   0.0000000e+00  -7.3952348e-05  -2.6350397e-05  -2.9783916e-04  -1.7065838e-04  -2.4259900e-04  -2.1646581e-04  -1.8178288e-04  -3.1017051e-04  -1.3362052e-04  -9.3371687e-05  -2.8492138e-04  -3.1354699e-04  -3.8879445e-04  -3.3514155e-04  -2.2465334e-04  -4.5523202e-05  -1.8559071e-04  -1.8491940e-04  -3.3263304e-04  -3.9385691e-04  -5.1449018e-04  -3.0999327e-04  -2.7891740e-04  -1.9433402e-04  -3.1332380e-04  -3.6176642e-04   1.6658286e-04   1.8428225e-04  -1.6209391e-04  -4.5447354e-04   0.0000000e+00  -4.8577997e-04   8.7141280e-05   2.9965286e-04  -1.7151986e-04  -2.3728940e-04   0.0000000e+00   0.0000000e+00  -4.1389891e-04   1.6039681e-04   2.5334031e-04  -5.4338898e-05  -2.2295106e-05  -3.6688192e-05  -1.1062618e-04  -1.9741995e-04   3.5634269e-06   8.8701345e-05  -1.7204136e-04  -3.3808895e-04  -2.5336127e-04  -7.9302198e-05   1.0936227e-04  -3.3535197e-05  -1.1899414e-04  -2.3733405e-04  -1.7518730e-04  -1.9672656e-04  -3.3699191e-04  -1.9594819e-04   8.0202435e-05   3.7875046e-05   8.8180386e-06  -1.0067542e-04  -5.4407273e-05  -2.1465289e-04  -1.1206799e-04  -5.8889195e-05   0.0000000e+00   1.4075141e-04  -1.2492790e-04  -1.9944385e-04   3.3491294e-06  -2.8357996e-05   0.0000000e+00   0.0000000e+00  -2.4012200e-04  -8.2845827e-05  -6.1525254e-05  -1.3742455e-04  -8.3093251e-06  -4.5237299e-05   2.4861107e-05  -2.6359529e-04  -1.0143877e-04  -1.6866924e-05   3.5880099e-05   4.1001275e-05   3.2381647e-05  -1.3370630e-04  -1.6617035e-04  -3.3162377e-05  -1.6808653e-07   8.0104568e-05   8.2347214e-05  -1.7032281e-05   4.8784596e-05  -7.8135319e-05  -5.1480415e-05  -3.1224401e-06  -1.7347119e-05  -5.6432440e-05  -1.7803892e-04  -2.3313694e-04  -1.6428753e-05   2.9979045e-05   0.0000000e+00  -2.3649542e-04  -2.0097124e-04  -4.7045543e-04   5.1346260e-05   2.8861836e-05   0.0000000e+00   0.0000000e+00  -1.9570922e-05  -5.4325189e-05   1.9308379e-05   5.0367294e-05  -4.4716760e-05   3.0707326e-05  -2.1393644e-05   8.1937688e-05   8.5941823e-05   1.7453908e-05   6.7819457e-05   3.7930302e-05  -3.7753364e-06  -2.6775092e-05   7.8243560e-05   3.2899987e-05   4.9267269e-05   6.3486610e-05   1.2409306e-04   4.6797478e-05   7.7385646e-05   7.4407265e-05   4.2354341e-05   1.6419847e-05   4.0310564e-05   1.1030967e-04  -2.2181342e-04  -1.9840299e-04   6.6034995e-05   1.1127100e-04   0.0000000e+00  -4.3196807e-05  -1.8719446e-04  -2.7203124e-04   7.4885449e-06   3.3530556e-05   0.0000000e+00   0.0000000e+00  -1.0041760e-04  -1.2077970e-04  -7.4094034e-05   3.9702634e-06  -5.5338878e-05  -2.8159663e-05  -3.9716586e-05   1.2812105e-04  -1.0316101e-04  -4.9043399e-05  -7.6841133e-05  -5.2326975e-05  -4.2102161e-05   2.2094380e-05   1.0985036e-04  -2.0604635e-05  -6.0950111e-05  -5.7169327e-05  -9.0049392e-05  -3.2068616e-05  -7.5992637e-05   1.0132603e-06  -4.0938928e-05  -4.0374236e-05  -5.0746990e-05  -4.6380581e-05   3.9814662e-05   7.9110381e-05  -6.1048088e-05  -5.7753905e-05   0.0000000e+00   5.0090583e-05   6.4862696e-05   1.9992265e-04  -6.1801625e-05  -4.4768980e-05   0.0000000e+00   0.0000000e+00  -4.4967498e-05  -7.5301841e-05   3.4368724e-05   7.1458145e-05   7.1475498e-05   6.4391144e-05   5.6582061e-05  -1.1835402e-04  -5.9143660e-05   3.7065674e-05   1.3177257e-04   1.1436061e-04   1.0433745e-04  -1.7810479e-04  -1.3981974e-04   2.5866251e-05   5.4041248e-05   1.1201024e-04   1.8973836e-04   1.1177751e-04   1.7560156e-04   3.3152776e-05   6.6102588e-05   1.9549688e-05   4.9269073e-05   1.1406409e-04  -1.3344918e-04  -1.8811025e-04   3.9254873e-05   9.7961564e-05   0.0000000e+00  -4.1466760e-05  -1.6679583e-04  -3.6337232e-04   5.8991227e-05   7.3785150e-05   0.0000000e+00   0.0000000e+00  -8.3952029e-05  -1.5758644e-04  -3.3951649e-05   9.9788302e-05   2.2369686e-05   3.0934957e-05   2.4070339e-05  -1.5807079e-05   5.9375665e-05   1.5024240e-05   1.1501939e-04   1.2352095e-04   1.2600339e-04  -4.5450158e-05  -4.9346738e-05   7.1430533e-05   4.9919801e-05   1.2453207e-04   1.8520974e-04   9.2595914e-05   1.3402962e-04   5.1015036e-06   3.6405794e-05   3.2006775e-07  -3.8707677e-05   2.6892397e-05  -1.8164339e-04  -2.5367740e-04   6.7202205e-06   7.3261932e-05   0.0000000e+00  -3.3472278e-05  -1.9608555e-04  -4.4919720e-04   9.5544209e-05   5.7958453e-05   0.0000000e+00   0.0000000e+00  -3.1459318e-04   1.2169354e-04   1.4271033e-04   2.5029806e-04   2.6435846e-04   1.7359503e-04   1.5868316e-04   2.9716422e-04   3.1015104e-05   1.4977043e-04   2.2323894e-04   1.6614284e-04   1.9159949e-04   3.0529685e-05   2.0859397e-04   5.1058891e-05   1.9708785e-04   1.0326523e-04   1.8923116e-04   1.8678438e-04   2.0626706e-04   2.2029861e-04   1.8890976e-04   1.6002759e-04   2.6195990e-04   2.1330839e-04   5.0197474e-05   8.2675065e-05   1.0756027e-04   1.0323214e-04   0.0000000e+00   5.7769744e-04   1.3991838e-04   3.1727828e-04   1.0575319e-04   1.0073662e-04   0.0000000e+00   0.0000000e+00   2.5926389e-04  -1.8765272e-04  -3.4788904e-04  -3.1426295e-04  -4.2522485e-04  -2.0515569e-04  -4.9810561e-05  -1.8048660e-04  -4.3166763e-05  -5.0928787e-05  -2.6093478e-04  -1.4447137e-04  -4.9178813e-05  -2.9766243e-04   7.2109172e-05   5.6489214e-05  -1.2868768e-04  -9.8212108e-05  -9.3164233e-05  -7.3596348e-05  -2.0829555e-04  -2.3006803e-04  -3.0081669e-04  -1.5827187e-04  -4.6303413e-04  -3.1789335e-04  -5.5794002e-05  -1.0296179e-04  -2.6292873e-04  -3.0910865e-04   0.0000000e+00   7.1573638e-05  -1.1182150e-04  -2.1482630e-04  -5.3100361e-05  -1.5711994e-04   0.0000000e+00   0.0000000e+00  -1.4026599e-04
  -6.4273296e-05  -1.5597954e-04  -1.9166434e-04  -2.7618434e-04  -1.5183809e-04  -1.2540440e-04   3.5193701e-05  -6.9790316e-05  -1.8972307e-04  -2.8366335e-04  -2.3829632e-04  -1.4961948e-04   2.8211148e-05   1.3485196e-04  -6.8931673e-05  -2.6775014e-04  -2.9418503e-04  -2.9588818e-04  -1.7211252e-04  -2.2449497e-04  -1.9375786e-04  -1.6742021e-04  -1.3556815e-04  -2.6274170e-04  -2.5749604e-04   1.6721753e-06   1.8060904e-05  -1.2390822e-04  -2.3713969e-04   0.0000000e+00  -6.5149954e-05  -6.9668042e-06   5.0161811e-05  -1.2948121e-04  -1.7511567e-04   0.0000000e+00   0.0000000e+00  -8.5740628e-05  -4.7564693e-05  -3.0772011e-04  -1.7472625e-04  -2.5349247e-04  -2.1341193e-04  -1.7701222e-04  -2.9639367e-04  -1.3258874e-04  -1.1041247e-04  -2.8210404e-04  -3.0471093e-04  -3.7088575e-04  -3.3755954e-04  -2.1540229e-04  -3.7422538e-05  -1.8546333e-04  -1.7975586e-04  -3.1971830e-04  -3.8014966e-04  -4.9707550e-04  -2.9961674e-04  -2.7336700e-04  -1.8950371e-04  -3.1272960e-04  -3.6675658e-04   1.6805895e-04   1.7921585e-04  -1.7300551e-04  -4.4944673e-04   0.0000000e+00  -4.7010798e-04   9.3162326e-05   3.0632543e-04  -1.7056201e-04  -2.3374468e-04   0.0000000e+00   0.0000000e+00  -4.4710483e-04   1.5677705e-04   2.6013984e-04  -6.3374270e-05  -3.8116821e-05  -3.0364802e-05  -1.0261474e-04  -2.0200330e-04  -6.1539783e-06   7.5518736e-05  -1.8360469e-04  -3.2966838e-04  -2.2852275e-04  -7.7750942e-05   1.1094597e-04  -4.5906180e-05  -1.3947986e-04  -2.4064889e-04  -1.8133685e-04  -1.7687582e-04  -3.0452084e-04  -1.7262067e-04   8.8406979e-05   4.8305306e-05   1.7388185e-05  -9.2865118e-05  -4.6402206e-05  -2.1969934e-04  -1.1292990e-04  -3.3983359e-05   0.0000000e+00   1.5742919e-04  -1.1184740e-04  -1.8814720e-04   1.3130767e-05  -1.8023619e-05   0.0000000e+00   0.0000000e+00  -2.3503623e-04  -8.5505064e-05  -5.8508842e-05  -1.4625841e-04  -9.5845472e-06  -4.8893612e-05   3.1201924e-05  -2.6298565e-04  -8.8276049e-05  -2.4804906e-05   4.3579292e-05   5.1051829e-05   4.2302626e-05  -1.2513460e-04  -1.6862344e-04  -2.7683875e-05  -2.0285100e-06   9.1093147e-05   9.3742370e-05  -1.1572305e-05   6.2189268e-05  -6.6818186e-05  -5.7908624e-05   6.4142360e-06  -1.3615999e-05  -5.7310896e-05  -1.8576463e-04  -2.4476465e-04  -1.3614196e-05   3.9836033e-05   0.0000000e+00  -2.2863622e-04  -2.0707462e-04  -4.8506871e-04   4.8844858e-05   3.5580584e-05   0.0000000e+00   0.0000000e+00  -8.9407928e-06  -7.5315425e-05   2.1767127e-05   6.2723200e-05  -3.5939945e-05   3.9934391e-05  -2.1092797e-05   8.5269750e-05   9.5983197e-05   2.4702146e-05   7.6806403e-05   4.8338854e-05   1.7125085e-07  -2.1092898e-05   7.8946980e-05   3.8503716e-05   5.6517313e-05   7.4365092e-05   1.3829951e-04   4.9213148e-05   8.3583993e-05   7.4779504e-05   5.1416700e-05   1.7266377e-05   4.6434783e-05   1.2277343e-04  -2.3342571e-04  -2.0344540e-04   7.5767554e-05   1.2673370e-04   0.0000000e+00  -4.4335693e-05  -1.9069987e-04  -2.7667471e-04   1.3505570e-05   3.9155384e-05   0.0000000e+00   0.0000000e+00  -9.4788015e-05  -1.3422933e-04  -7.9528533e-05   4.2400251e-06  -5.7536752e-05  -2.6342119e-05  -4.0447013e-05   1.2799164e-04  -1.0051564e-04  -4.9092530e-05  -7.4129473e-05  -4.6499859e-05  -4.2205178e-05   1.2363243e-05   1.0276429e-04  -1.6461603e-05  -5.7321088e-05  -4.7713695e-05  -8.2441286e-05  -3.1579562e-05  -7.7804003e-05   2.8966898e-06  -4.1532720e-05  -3.8712965e-05  -5.4429851e-05  -4.5550496e-05   4.8349501e-05   8.5514794e-05  -6.2776726e-05  -5.7207920e-05   0.0000000e+00   5.1362000e-05   7.0174561e-05   2.0633330e-04  -6.0160371e-05  -4.2978083e-05   0.0000000e+00   0.0000000e+00  -5.6104981e-05  -7.8171974e-05   4.1213524e-05   8.0696041e-05   8.5749941e-05   6.9725138e-05   6.0146953e-05  -1.3247673e-04  -5.9344689e-05   4.9950913e-05   1.3995183e-04   1.1882402e-04   1.0624271e-04  -1.5850008e-04  -1.4495050e-04   2.3190518e-05   6.2053364e-05   1.1927931e-04   1.9285987e-04   1.1315235e-04   1.8003314e-04   3.4867433e-05   7.2403516e-05   2.4171564e-05   6.0591692e-05   1.3080225e-04  -1.2820320e-04  -1.8157048e-04   4.8121669e-05   1.1479950e-04   0.0000000e+00  -4.3311338e-05  -1.6191807e-04  -3.5716718e-04   6.8433045e-05   8.2578927e-05   0.0000000e+00   0.0000000e+00  -6.8371035e-05  -1.5927859e-04  -3.2546733e-05   1.1197698e-04   4.5410364e-05   3.8776168e-05   2.8352134e-05  -1.0510014e-05   6.9484098e-05   3.1307942e-05   1.2869786e-04   1.4281868e-04   1.3208723e-04  -3.4222758e-05  -5.0549676e-05   7.3622884e-05   6.4550807e-05   1.4502054e-04   2.0663320e-04   9.7744093e-05   1.4455026e-04   1.0396642e-05   3.9825161e-05   5.6772116e-06  -3.6554824e-05   3.5229563e-05  -1.8799083e-04  -2.6014328e-04   1.4709804e-05   8.0528784e-05   0.0000000e+00  -2.7679966e-05  -2.0233036e-04  -4.8034775e-04   1.0923336e-04   6.5148334e-05   0.0000000e+00   0.0000000e+00  -3.1110290e-04   1.0563586e-04   1.3522036e-04   2.4408905e-04   2.5630506e-04   1.6708331e-04   1.5317305e-04   2.8820956e-04   3.9814230e-05   1.3230536e-04   2.2107037e-04   1.6162808e-04   1.8830678e-04   4.0987943e-05   1.9470764e-04   5.3902945e-05   1.9019837e-04   1.0451155e-04   1.9082958e-04   1.8001783e-04   2.0074189e-04   2.2268642e-04   1.7866495e-04   1.5591343e-04   2.6118368e-04   2.0438800e-04   3.1807543e-05   6.9694296e-05   9.9715550e-05   1.0222200e-04   0.0000000e+00   5.5968931e-04   1.2865055e-04   3.0580501e-04   9.5185522e-05   9.7879128e-05   0.0000000e+00   0.0000000e+00   2.8060587e-04  -1.9322593e-04  -3.2420331e-04  -2.9925619e-04  -4.0991705e-04  -1.9333994e-04  -3.5892884e-05  -1.7378163e-04  -3.3749924e-05  -4.3226822e-05  -2.3777761e-04  -1.2967503e-04  -2.0455032e-05  -2.7383649e-04   8.2794607e-05   6.0744973e-05  -1.0994918e-04  -9.1738033e-05  -7.4723172e-05  -4.7447064e-05  -1.7287600e-04  -1.9985885e-04  -2.7573605e-04  -1.4046208e-04  -4.1864618e-04  -2.8789419e-04  -4.5999130e-05  -9.9635694e-05  -2.4707050e-04  -2.6066794e-04   0.0000000e+00   1.1734432e-04  -9.7051176e-05  -1.9323540e-04  -3.7046114e-05  -1.2606914e-04   0.0000000e+00   0.0000000e+00  -1.2990816e-04
  -7.4564192e-05  -1.6221170e-04  -1.9172074e-04  -2.8060379e-04  -1.4938825e-04  -1.2015120e-04   2.9944418e-05  -7.1857811e-05  -1.8933784e-04  -2.7549393e-04  -2.2857215e-04  -1.3760827e-04   2.2554987e-05   1.3394541e-04  -6.2345005e-05  -2.6330971e-04  -2.8434248e-04  -2.8123084e-04  -1.5773617e-04  -2.1188105e-04  -1.8720406e-04  -1.6782802e-04  -1.3281015e-04  -2.6618684e-04  -2.6069573e-04   3.2290838e-06   1.7343744e-05  -1.2818773e-04  -2.3828767e-04   0.0000000e+00  -6.6483826e-05  -7.1072118e-06   4.9773807e-05  -1.2510202e-04  -1.7173209e-04   0.0000000e+00   0.0000000e+00  -9.7770167e-05  -6.5483116e-05  -3.1189123e-04  -1.7578406e-04  -2.5951170e-04  -2.0695668e-04  -1.6847462e-04  -2.7825521e-04  -1.2862975e-04  -1.2315667e-04  -2.7398577e-04  -2.9079388e-04  -3.4846866e-04  -3.3618193e-04  -2.0431806e-04  -2.8598862e-05  -1.8103114e-04  -1.7047546e-04  -3.0171732e-04  -3.6076217e-04  -4.7228256e-04  -2.8493391e-04  -2.6336943e-04  -1.8114258e-04  -3.0740441e-04  -3.6701976e-04   1.6904996e-04   1.7344805e-04  -1.7996473e-04  -4.4021018e-04   0.0000000e+00  -4.4770256e-04   9.8597341e-05   3.0979162e-04  -1.6668292e-04  -2.2699921e-04   0.0000000e+00   0.0000000e+00  -4.7185116e-04   1.5013532e-04   2.6132023e-04  -7.6953739e-05  -6.0020946e-05  -2.9971348e-05  -9.9219964e-05  -2.0720889e-04  -1.9041045e-05   5.8972917e-05  -2.0021081e-04  -3.2604772e-04  -2.0983773e-04  -8.1494768e-05   1.0925233e-04  -5.9615125e-05  -1.6302658e-04  -2.4682078e-04  -1.9243173e-04  -1.6326737e-04  -2.7907501e-04  -1.5654637e-04   9.0713894e-05   5.1906992e-05   2.0123451e-05  -8.9707207e-05  -4.2130666e-05  -2.2262394e-04  -1.1600999e-04  -1.7025809e-05   0.0000000e+00   1.7038466e-04  -1.0249602e-04  -1.8071263e-04   1.7122066e-05  -1.4328204e-05   0.0000000e+00   0.0000000e+00  -2.2811109e-04  -8.4621294e-05  -5.3599307e-05  -1.5222946e-04  -8.7122157e-06  -5.0686866e-05   3.8353905e-05  -2.5923242e-04  -7.2978649e-05  -3.0918382e-05   5.2641909e-05   6.2105161e-05   5.2755372e-05  -1.1317492e-04  -1.6931095e-04  -2.1474393e-05  -2.0475165e-06   1.0280448e-04   1.0590448e-04  -4.4834328e-06   7.6554775e-05  -5.3868175e-05  -6.2235482e-05   1.6796602e-05  -9.1548620e-06  -5.6237486e-05  -1.9064636e-04  -2.5321132e-04  -9.8107845e-06   4.9319977e-05   0.0000000e+00  -2.1611472e-04  -2.1078644e-04  -4.9540877e-04   4.6586501e-05   4.2568897e-05   0.0000000e+00   0.0000000e+00   1.2782454e-06  -9.2882951e-05   2.7028915e-05   7.7253365e-05  -2.3323035e-05   5.1475673e-05  -1.7498079e-05   9.0314188e-05   1.0656159e-04   3.5333242e-05   8.8542977e-05   6.1716804e-05   7.6750565e-06  -1.4361366e-05   7.9772754e-05   4.5083086e-05   6.7118028e-05   8.7915302e-05   1.5563332e-04   5.6387946e-05   9.4034751e-05   7.8828224e-05   6.2750063e-05   2.1199980e-05   5.5528609e-05   1.3736370e-04  -2.3892856e-04  -2.0284195e-04   8.6989458e-05   1.4473935e-04   0.0000000e+00  -3.9595740e-05  -1.8826314e-04  -2.7253784e-04   2.2141642e-05   4.7496569e-05   0.0000000e+00   0.0000000e+00  -8.4977827e-05  -1.4350804e-04  -8.1487621e-05   5.7558791e-06  -5.6310637e-05  -2.2094759e-05  -3.8243593e-05   1.2968432e-04  -9.5651818e-05  -4.7232821e-05  -6.6725941e-05  -3.6442974e-05  -3.8225909e-05   2.7618332e-06   9.3323160e-05  -1.0926741e-05  -4.9692129e-05  -3.4620002e-05  -7.0612087e-05  -2.7275206e-05  -7.4490804e-05   8.7241998e-06  -3.9596455e-05  -3.4150224e-05  -5.4135418e-05  -4.2274197e-05   5.7698681e-05   9.1607912e-05  -6.2931988e-05  -5.4223436e-05   0.0000000e+00   5.6037120e-05   7.6813028e-05   2.1304760e-04  -5.6239277e-05  -3.8322775e-05   0.0000000e+00   0.0000000e+00  -6.6337268e-05  -7.9355649e-05   4.8350410e-05   8.8136860e-05   9.9425477e-05   7.4567304e-05   6.4226594e-05  -1.4711978e-04  -6.0527621e-05   6.2624677e-05   1.4823862e-04   1.2316224e-04   1.0829221e-04  -1.3779012e-04  -1.5060730e-04   1.9914933e-05   7.0352336e-05   1.2692051e-04   1.9484722e-04   1.1465888e-04   1.8390250e-04   3.7165213e-05   7.8220537e-05   2.9563768e-05   7.1686148e-05   1.4531402e-04  -1.2097138e-04  -1.7313630e-04   5.5953024e-05   1.3070583e-04   0.0000000e+00  -4.3446535e-05  -1.5523648e-04  -3.4952756e-04   7.8092892e-05   9.1346591e-05   0.0000000e+00   0.0000000e+00  -5.1670677e-05  -1.5835208e-04  -3.1901236e-05   1.2277774e-04   6.8793051e-05   4.5863927e-05   3.1764458e-05  -5.3075616e-06   7.9284020e-05   4.7679665e-05   1.4133193e-04   1.6109044e-04   1.3557064e-04  -2.2100568e-05  -5.1987055e-05   7.5588446e-05   7.9296595e-05   1.6498271e-04   2.2601301e-04   1.0048026e-04   1.5111786e-04   1.4467414e-05   4.1375526e-05   1.1222946e-05  -3.4436631e-05   4.1405974e-05  -1.8980957e-04  -2.6048105e-04   2.1754893e-05   8.4305145e-05   0.0000000e+00  -2.1581907e-05  -2.0467271e-04  -5.0249167e-04   1.2171791e-04   7.0544674e-05   0.0000000e+00   0.0000000e+00  -3.0501314e-04   9.4637030e-05   1.2991633e-04   2.3636093e-04   2.4787800e-04   1.6025987e-04   1.4871072e-04   2.8148650e-04   4.9476112e-05   1.1485661e-04   2.1923927e-04   1.5778154e-04   1.8584528e-04   4.8457288e-05   1.8071092e-04   5.6143846e-05   1.8290311e-04   1.0671609e-04   1.9288756e-04   1.7414918e-04   1.9699801e-04   2.2458541e-04   1.6816344e-04   1.5247954e-04   2.6028264e-04   1.9581272e-04   1.1471294e-05   5.2490711e-05   9.3352277e-05   1.0389775e-04   0.0000000e+00   5.4329696e-04   1.1483985e-04   2.8543614e-04   8.5602770e-05   9.6836184e-05   0.0000000e+00   0.0000000e+00   2.9966815e-04  -1.9694073e-04  -3.0060879e-04  -2.8452319e-04  -3.9523759e-04  -1.8251640e-04  -2.2919033e-05  -1.6791137e-04  -2.6081401e-05  -3.5782098e-05  -2.1639233e-04  -1.1657794e-04   4.6690949e-06  -2.5252588e-04   9.1281739e-05   6.3326457e-05  -9.3317625e-05  -8.6747978e-05  -5.9393970e-05  -2.3860076e-05  -1.4004700e-04  -1.7228385e-04  -2.5154060e-04  -1.2321733e-04  -3.7603529e-04  -2.5936766e-04  -3.5471933e-05  -9.3574776e-05  -2.3096928e-04  -2.1706235e-04   0.0000000e+00   1.6033652e-04  -8.2452000e-05  -1.7088008e-04  -2.3898851e-05  -9.9629723e-05   0.0000000e+00   0.0000000e+00  -1.1827020e-04
  -8.4370070e-05  -1.6697092e-04  -1.8886957e-04  -2.8254658e-04  -1.4560893e-04  -1.1463044e-04   2.5978114e-05  -7.3206996e-05  -1.8759710e-04  -2.6566657e-04  -2.1774648e-04  -1.2522789e-04   1.4101704e-05   1.3319547e-04  -5.5520743e-05  -2.5713302e-04  -2.7365673e-04  -2.6507072e-04  -1.4305486e-04  -1.9851177e-04  -1.8027743e-04  -1.6643997e-04  -1.2994360e-04  -2.6697428e-04  -2.6081685e-04   2.2343540e-06   1.4172098e-05  -1.3095386e-04  -2.3726477e-04   0.0000000e+00  -6.8049859e-05  -9.4692729e-06   4.6242770e-05  -1.2040035e-04  -1.6773951e-04   0.0000000e+00   0.0000000e+00  -1.0978281e-04  -7.9835658e-05  -3.1100683e-04  -1.7433740e-04  -2.6134145e-04  -1.9802606e-04  -1.5702689e-04  -2.5722923e-04  -1.2242514e-04  -1.3144775e-04  -2.6200552e-04  -2.7335310e-04  -3.2354570e-04  -3.3134094e-04  -1.9215219e-04  -1.9764925e-05  -1.7319706e-04  -1.5821252e-04  -2.8041596e-04  -3.3731920e-04  -4.4234450e-04  -2.6748000e-04  -2.5002653e-04  -1.7017015e-04  -2.9845962e-04  -3.6333269e-04   1.6923295e-04   1.6706010e-04  -1.8305628e-04  -4.2788460e-04   0.0000000e+00  -4.2033880e-04   1.0290962e-04   3.0985403e-04  -1.6055664e-04  -2.1798877e-04   0.0000000e+00   0.0000000e+00  -4.8783351e-04   1.4042064e-04   2.5588329e-04  -9.5592152e-05  -8.8970235e-05  -3.6578819e-05  -1.0145255e-04  -2.1358218e-04  -3.4811712e-05   3.9141363e-05  -2.2272312e-04  -3.2884460e-04  -1.9924747e-04  -9.1094992e-05   1.0427505e-04  -7.4381841e-05  -1.8971795e-04  -2.5654432e-04  -2.0920566e-04  -1.5740209e-04  -2.6315340e-04  -1.4984800e-04   8.5897734e-05   4.7387487e-05   1.5152254e-05  -9.2683278e-05  -4.2683915e-05  -2.2422999e-04  -1.2221472e-04  -9.9721462e-06   0.0000000e+00   1.7850332e-04  -9.8231726e-05  -1.7875185e-04   1.4492477e-05  -1.8413363e-05   0.0000000e+00   0.0000000e+00  -2.2094539e-04  -7.9990078e-05  -4.6928903e-05  -1.5507434e-04  -5.4843461e-06  -5.0479699e-05   4.6040525e-05  -2.5283057e-04  -5.6182644e-05  -3.4773032e-05   6.2813736e-05   7.3755053e-05   6.3282523e-05  -9.8087533e-05  -1.6842095e-04  -1.4884987e-05  -9.0673746e-08   1.1486649e-04   1.1843079e-04   3.9187245e-06   9.1328609e-05  -4.0059571e-05  -6.4160324e-05   2.7518487e-05  -4.0066070e-06  -5.3068568e-05  -1.9287862e-04  -2.5867611e-04  -5.1183196e-06   5.8221125e-05   0.0000000e+00  -1.9935282e-04  -2.1239073e-04  -5.0200236e-04   4.4746092e-05   4.9643912e-05   0.0000000e+00   0.0000000e+00   1.0862137e-05  -1.0620908e-04   3.5259285e-05   9.3906854e-05  -6.7800310e-06   6.5217227e-05  -1.0467445e-05   9.7169667e-05   1.1773272e-04   4.9393836e-05   1.0324152e-04   7.7960718e-05   1.8852330e-05  -7.0158674e-06   8.1089604e-05   5.2554807e-05   8.1211261e-05   1.0405241e-04   1.7585249e-04   6.8407236e-05   1.0871367e-04   8.6998918e-05   7.6154342e-05   2.8406001e-05   6.7817111e-05   1.5404816e-04  -2.3759658e-04  -1.9602634e-04   9.9677561e-05   1.6473361e-04   0.0000000e+00  -2.9081098e-05  -1.7951700e-04  -2.5881038e-04   3.3349709e-05   5.8365277e-05   0.0000000e+00   0.0000000e+00  -7.1093381e-05  -1.4811190e-04  -7.9750908e-05   8.4713798e-06  -5.1571561e-05  -1.5535311e-05  -3.3019875e-05   1.3321239e-04  -8.8845505e-05  -4.3562853e-05  -5.4734861e-05  -2.2330116e-05  -3.0148096e-05  -6.6566161e-06   8.1581932e-05  -4.2062125e-06  -3.8259011e-05  -1.8170202e-05  -5.4868001e-05  -1.9123069e-05  -6.5951728e-05   1.8711478e-05  -3.5194606e-05  -2.6738433e-05  -4.9658114e-05  -3.6550381e-05   6.7664087e-05   9.7328120e-05  -6.1407431e-05  -4.8785883e-05   0.0000000e+00   6.3614066e-05   8.4820071e-05   2.2064221e-04  -5.0297163e-05  -3.0880726e-05   0.0000000e+00   0.0000000e+00  -7.5401403e-05  -7.8756568e-05   5.5556594e-05   9.3484529e-05   1.1197189e-04   7.8631075e-05   6.8497660e-05  -1.6204029e-04  -6.2903245e-05   7.4522909e-05   1.5624794e-04   1.2703373e-04   1.1013601e-04  -1.1744326e-04  -1.5715932e-04   1.5868796e-05   7.8520077e-05   1.3438773e-04   1.9536495e-04   1.1589239e-04   1.8685107e-04   3.9468103e-05   8.3303408e-05   3.5310734e-05   8.2263244e-05   1.5722344e-04  -1.1292789e-04  -1.6404884e-04   6.2447760e-05   1.4520317e-04   0.0000000e+00  -4.2086801e-05  -1.4788497e-04  -3.4224955e-04   8.7426030e-05   9.9686742e-05   0.0000000e+00   0.0000000e+00  -3.4589121e-05  -1.5471958e-04  -3.1950334e-05   1.3202243e-04   9.1986644e-05   5.2011479e-05   3.4155563e-05   6.8678929e-09   8.8636060e-05   6.3590468e-05   1.5250989e-04   1.7774723e-04   1.3623413e-04  -9.4467533e-06  -5.3561325e-05   7.7268411e-05   9.3778621e-05   1.8376972e-04   2.4263449e-04   1.0061488e-04   1.5338380e-04   1.7088039e-05   4.1177901e-05   1.6720813e-05  -3.2141101e-05   4.5613233e-05  -1.8755139e-04  -2.5520696e-04   2.7730647e-05   8.4767042e-05   0.0000000e+00  -1.5230530e-05  -2.0348322e-04  -5.1560105e-04   1.3259778e-04   7.4003535e-05   0.0000000e+00   0.0000000e+00  -2.9642732e-04   8.9211178e-05   1.2675017e-04   2.2817584e-04   2.3943548e-04   1.5356379e-04   1.4523409e-04   2.7734976e-04   5.8635592e-05   9.8548576e-05   2.1753118e-04   1.5435534e-04   1.8382030e-04   5.1589952e-05   1.6724918e-04   5.7236645e-05   1.7547875e-04   1.0919653e-04   1.9466890e-04   1.6911928e-04   1.9450720e-04   2.2559327e-04   1.5809333e-04   1.4966969e-04   2.5900261e-04   1.8809414e-04  -9.3350128e-06   3.2806854e-05   8.8649038e-05   1.0761274e-04   0.0000000e+00   5.2942316e-04   9.9664254e-05   2.5869096e-04   7.7410461e-05   9.7136081e-05   0.0000000e+00   0.0000000e+00   3.1496532e-04  -1.9916680e-04  -2.7870042e-04  -2.7103569e-04  -3.8250140e-04  -1.7346428e-04  -1.1642299e-05  -1.6343726e-04  -2.0579593e-05  -2.8968273e-05  -1.9800952e-04  -1.0589597e-04   2.4713984e-05  -2.3493673e-04   9.7379658e-05   6.4171818e-05  -7.9557021e-05  -8.3561742e-05  -4.7893077e-05  -4.0797792e-06  -1.1161066e-04  -1.4890496e-04  -2.2955758e-04  -1.0758155e-04  -3.3727254e-04  -2.3349894e-04  -2.4941646e-05  -8.5341572e-05  -2.1551610e-04  -1.8010876e-04   0.0000000e+00   1.9883586e-04  -6.8895847e-05  -1.4909857e-04  -1.4377280e-05  -7.8937441e-05   0.0000000e+00   0.0000000e+00  -1.0618776e-04
  -9.3712034e-05  -1.7024372e-04  -1.8340435e-04  -2.8209029e-04  -1.4070143e-04  -1.0908667e-04   2.3287467e-05  -7.3803119e-05  -1.8462955e-04  -2.5459755e-04  -2.0621047e-04  -1.1291228e-04   3.3112626e-06   1.3259911e-04  -4.8738244e-05  -2.4957401e-04  -2.6252532e-04  -2.4793285e-04  -1.2862616e-04  -1.8479061e-04  -1.7339811e-04  -1.6336501e-04  -1.2713982e-04  -2.6527311e-04  -2.5793803e-04  -1.5538588e-06   8.2396689e-06  -1.3215424e-04  -2.3398879e-04   0.0000000e+00  -6.9958814e-05  -1.4255936e-05   3.8965913e-05  -1.1549173e-04  -1.6319981e-04   0.0000000e+00   0.0000000e+00  -1.2148229e-04  -9.0536294e-05  -3.0592211e-04  -1.7099157e-04  -2.5986341e-04  -1.8763697e-04  -1.4368160e-04  -2.3488074e-04  -1.1481229e-04  -1.3533653e-04  -2.4781419e-04  -2.5412635e-04  -2.9823875e-04  -3.2347120e-04  -1.7965048e-04  -1.1628160e-05  -1.6301560e-04  -1.4426968e-04  -2.5773764e-04  -3.1163200e-04  -4.0970889e-04  -2.4896025e-04  -2.3452860e-04  -1.5763881e-04  -2.8713408e-04  -3.5657145e-04   1.6815828e-04   1.5995985e-04  -1.8253621e-04  -4.1361011e-04   0.0000000e+00  -3.8984798e-04   1.0548078e-04   3.0610890e-04  -1.5294251e-04  -2.0771120e-04   0.0000000e+00   0.0000000e+00  -4.9508926e-04   1.2765232e-04   2.4308412e-04  -1.1952286e-04  -1.2557267e-04  -5.0850232e-05  -1.1003506e-04  -2.2157978e-04  -5.3049395e-05   1.6238948e-05  -2.5169546e-04  -3.3928193e-04  -1.9826360e-04  -1.0672417e-04   9.6192727e-05  -8.9918881e-05  -2.1947501e-04  -2.7029235e-04  -2.3210587e-04  -1.6036733e-04  -2.5870171e-04  -1.5409649e-04   7.3103166e-05   3.3887443e-05   1.0490039e-06  -1.0287599e-04  -4.8945314e-05  -2.2542344e-04  -1.3228011e-04  -1.4136497e-05   0.0000000e+00   1.8089975e-04  -1.0014077e-04  -1.8358902e-04   4.7936107e-06  -3.0960694e-05   0.0000000e+00   0.0000000e+00  -2.1514172e-04  -7.1573243e-05  -3.8696924e-05  -1.5466757e-04   1.8186943e-07  -4.8244581e-05   5.3937008e-05  -2.4433599e-04  -3.8636576e-05  -3.6082000e-05   7.3750135e-05   8.5525526e-05   7.3399916e-05  -8.0330815e-05  -1.6615589e-04  -8.2955718e-06   3.8474357e-06   1.2683291e-04   1.3085697e-04   1.3232599e-05   1.0590686e-04  -2.6224388e-05  -6.3505225e-05   3.8040149e-05   1.7685869e-06  -4.7733978e-05  -1.9278610e-04  -2.6147681e-04   3.2758171e-07   6.6387032e-05   0.0000000e+00  -1.7896392e-04  -2.1225797e-04  -5.0549229e-04   4.3444824e-05   5.6627476e-05   0.0000000e+00   0.0000000e+00   1.9684737e-05  -1.1464996e-04   4.6456806e-05   1.1249952e-04   1.3569645e-05   8.0930718e-05  -3.8581653e-08   1.0576298e-04   1.2952444e-04   6.6711390e-05   1.2094922e-04   9.6840931e-05   3.3655900e-05   4.7017735e-07   8.3219326e-05   6.0777099e-05   9.8719547e-05   1.2253353e-04   1.9854280e-04   8.5105395e-05   1.2737243e-04   9.9517603e-05   9.1314174e-05   3.8894279e-05   8.3335561e-05   1.7267165e-04  -2.2905561e-04  -1.8276368e-04   1.1373338e-04   1.8604178e-04   0.0000000e+00  -1.3366252e-05  -1.6442070e-04  -2.3516772e-04   4.6945806e-05   7.1422939e-05   0.0000000e+00   0.0000000e+00  -5.3503148e-05  -1.4777765e-04  -7.4298289e-05   1.2313693e-05  -4.3397407e-05  -6.8970049e-06  -2.4871011e-05   1.3842153e-04  -8.0503565e-05  -3.8236480e-05  -3.8529331e-05  -4.5803183e-06  -1.8223314e-05  -1.5881589e-05   6.7708463e-05   3.4223943e-06  -2.3405873e-05   1.1574338e-06  -3.5741906e-05  -7.3232837e-06  -5.2405949e-05   3.2833333e-05  -2.8502693e-05  -1.6687706e-05  -4.1017640e-05  -2.8467123e-05   7.8079527e-05   1.0271820e-04  -5.8144081e-05  -4.1013809e-05   0.0000000e+00   7.3338417e-05   9.4207508e-05   2.2974594e-04  -4.2696956e-05  -2.0890229e-05   0.0000000e+00   0.0000000e+00  -8.3090160e-05  -7.6390418e-05   6.2565668e-05   9.6509886e-05   1.2284079e-04   8.1620237e-05   7.2563236e-05  -1.7701966e-04  -6.6654496e-05   8.5067171e-05   1.6349973e-04   1.3003164e-04   1.1135874e-04  -9.8960267e-05  -1.6491151e-04   1.0866700e-05   8.6048962e-05   1.4102205e-04   1.9402810e-04   1.1637247e-04   1.8847255e-04   4.1118396e-05   8.7396583e-05   4.0923690e-05   9.2008444e-05   1.6625039e-04  -1.0533274e-04  -1.5558902e-04   6.7345300e-05   1.5783814e-04   0.0000000e+00  -3.9553616e-05  -1.4103685e-04  -3.3705499e-04   9.5855573e-05   1.0716097e-04   0.0000000e+00   0.0000000e+00  -1.7862098e-05  -1.4840766e-04  -3.2593155e-05   1.3962116e-04   1.1445731e-04   5.7064610e-05   3.5395015e-05   5.6556167e-06   9.7414691e-05   7.8508372e-05   1.6181022e-04   1.9220404e-04   1.3393735e-04   3.3551632e-06  -5.5146068e-05   7.8565830e-05   1.0758692e-04   2.0069833e-04   2.5580960e-04   9.8034297e-05   1.5115649e-04   1.8052365e-05   3.9439251e-05   2.1900672e-05  -2.9484151e-05   4.8150516e-05  -1.8191501e-04  -2.4515849e-04   3.2568306e-05   8.2256701e-05   0.0000000e+00  -8.7015828e-06  -1.9934042e-04  -5.2012835e-04   1.4152272e-04   7.5449746e-05   0.0000000e+00   0.0000000e+00  -2.8552530e-04   8.9401264e-05   1.2541059e-04   2.2056287e-04   2.3121819e-04   1.4736295e-04   1.4250318e-04   2.7574269e-04   6.5811015e-05   8.4420236e-05   2.1557200e-04   1.5093921e-04   1.8166267e-04   4.9306742e-05   1.5478082e-04   5.6623737e-05   1.6814497e-04   1.1113467e-04   1.9531557e-04   1.6470116e-04   1.9250415e-04   2.2518874e-04   1.4906515e-04   1.4726852e-04   2.5695567e-04   1.8159054e-04  -2.9151340e-05   1.2525288e-05   8.5589717e-05   1.1252472e-04   0.0000000e+00   5.1858394e-04   8.4322814e-05   2.2845552e-04   7.0901182e-05   9.8142398e-05   0.0000000e+00   0.0000000e+00   3.2520781e-04  -2.0037661e-04  -2.5988940e-04  -2.5957807e-04  -3.7282578e-04  -1.6679723e-04  -2.7203078e-06  -1.6079849e-04  -1.7521331e-05  -2.3086258e-05  -1.8358514e-04  -9.8165745e-05   3.8481060e-05  -2.2193033e-04   1.0105508e-04   6.3300154e-05  -6.9202707e-05  -8.2390029e-05  -4.0709424e-05   1.0864481e-05  -8.9102461e-05  -1.3097283e-04  -2.1088658e-04  -9.4458892e-05  -3.0400929e-04  -2.1118193e-04  -1.5145115e-05  -7.5639828e-05  -2.0149771e-04  -1.5105889e-04   0.0000000e+00   2.3145020e-04  -5.7173861e-05  -1.2917124e-04  -8.9469594e-06  -6.4687313e-05   0.0000000e+00   0.0000000e+00  -9.4461299e-05
  -1.0260226e-04  -1.7204334e-04  -1.7570584e-04  -2.7933333e-04  -1.3486697e-04  -1.0370326e-04   2.1784414e-05  -7.3611669e-05  -1.8055093e-04  -2.4264332e-04  -1.9428115e-04  -1.0101771e-04  -9.1660681e-06   1.3208167e-04  -4.2235972e-05  -2.4094853e-04  -2.5122961e-04  -2.3026049e-04  -1.1491343e-04  -1.7103919e-04  -1.6688570e-04  -1.5875354e-04  -1.2449100e-04  -2.6130737e-04  -2.5223273e-04  -8.1492551e-06  -5.4707425e-07  -1.3177808e-04  -2.2842921e-04   0.0000000e+00  -7.2254420e-05  -2.1475287e-05   2.7600731e-05  -1.1043791e-04  -1.5813503e-04   0.0000000e+00   0.0000000e+00  -1.3254998e-04  -9.7672090e-05  -2.9762781e-04  -1.6641135e-04  -2.5608330e-04  -1.7683412e-04  -1.2953880e-04  -2.1274650e-04  -1.0671353e-04  -1.3506691e-04  -2.3314510e-04  -2.3490926e-04  -2.7464969e-04  -3.1308322e-04  -1.6750329e-04  -4.8431711e-06  -1.5160503e-04  -1.3002163e-04  -2.3560680e-04  -2.8558400e-04  -3.7687983e-04  -2.3113139e-04  -2.1807861e-04  -1.4466189e-04  -2.7470984e-04  -3.4765523e-04   1.6528045e-04   1.5189432e-04  -1.7881018e-04  -3.9847036e-04   0.0000000e+00  -3.5798854e-04   1.0565458e-04   2.9795913e-04  -1.4462562e-04  -1.9715301e-04   0.0000000e+00   0.0000000e+00  -4.9397266e-04   1.1190825e-04   2.2250603e-04  -1.4865417e-04  -1.6999495e-04  -7.2970657e-05  -1.2532805e-04  -2.3152409e-04  -7.3221096e-05  -9.3913695e-06  -2.8727121e-04  -3.5809437e-04  -2.0786021e-04  -1.2816430e-04   8.5353842e-05  -1.0593657e-04  -2.5203954e-04  -2.8826684e-04  -2.6123452e-04  -1.7275756e-04  -2.6696209e-04  -1.7016371e-04   5.1941626e-05   1.1065325e-05  -2.3036540e-05  -1.2087089e-04  -6.1504482e-05  -2.2713623e-04  -1.4668630e-04  -3.0066333e-05   0.0000000e+00   1.7699941e-04  -1.0894152e-04  -1.9614099e-04  -1.1999591e-05  -5.2111830e-05   0.0000000e+00   0.0000000e+00  -2.1215003e-04  -5.9508312e-05  -2.9160464e-05  -1.5101579e-04   8.2362849e-06  -4.4060354e-05   6.1693601e-05  -2.3432777e-04  -2.1163676e-05  -3.4717727e-05   8.5034884e-05   9.6898219e-05   8.2628789e-05  -6.0536891e-05  -1.6271173e-04  -2.0898388e-06   9.6434424e-06   1.3820857e-04   1.4268030e-04   2.2993408e-05   1.1967246e-04  -1.3196861e-05  -6.0224186e-05   4.7825036e-05   8.0922252e-06  -4.0243224e-05  -1.9078654e-04  -2.6200184e-04   6.3573558e-06   7.3724778e-05   0.0000000e+00  -1.5572222e-04  -2.1080602e-04  -5.0657062e-04   4.2741746e-05   6.3356615e-05   0.0000000e+00   0.0000000e+00   2.7720781e-05  -1.1777058e-04   6.0449282e-05   1.3271187e-04   3.7380824e-05   9.8280925e-05   1.3570764e-05   1.1585707e-04   1.4192485e-04   8.6899030e-05   1.4153036e-04   1.1799735e-04   5.1864228e-05   7.5865110e-06   8.6388359e-05   6.9549764e-05   1.1933546e-04   1.4295335e-04   2.2314379e-04   1.0607398e-04   1.4955229e-04   1.1636571e-04   1.0782183e-04   5.2492969e-05   1.0192468e-04   1.9295380e-04  -2.1332936e-04  -1.6319558e-04   1.2897771e-04   2.0791863e-04   0.0000000e+00   6.5268418e-06  -1.4329301e-04  -2.0184659e-04   6.2604177e-05   8.6202351e-05   0.0000000e+00   0.0000000e+00  -3.2835449e-05  -1.4249498e-04  -6.5312110e-05   1.7183924e-05  -3.2026082e-05   3.4840714e-06  -1.4065103e-05   1.4499440e-04  -7.1138583e-05  -3.1451774e-05  -1.8732878e-05   1.6159954e-05  -2.9560108e-06  -2.4953844e-05   5.1969240e-05   1.1623796e-05  -5.6833586e-06   2.2714188e-05  -1.3967755e-05   7.6958444e-06  -3.4383597e-05   5.0820866e-05  -1.9797541e-05  -4.3532723e-06  -2.8456792e-05  -1.8206938e-05   8.8819135e-05   1.0792670e-04  -5.3133938e-05  -3.1164280e-05   0.0000000e+00   8.4260279e-05   1.0495362e-04   2.4097748e-04  -3.3884933e-05  -8.7387662e-06   0.0000000e+00   0.0000000e+00  -8.9262591e-05  -7.2386946e-05   6.9083206e-05   9.7060112e-05   1.3149607e-04   8.3245318e-05   7.5985277e-05  -1.9186165e-04  -7.1922199e-05   9.3695946e-05   1.6944198e-04   1.3170956e-04   1.1151191e-04  -8.3775038e-05  -1.7407788e-04   4.7268987e-06   9.2369768e-05   1.4609643e-04   1.9043444e-04   1.1558214e-04   1.8834780e-04   4.1424465e-05   9.0253736e-05   4.5875728e-05   1.0059350e-04   1.7221693e-04  -9.9432289e-05  -1.4897792e-04   7.0444592e-05   1.6820847e-04   0.0000000e+00  -3.6247654e-05  -1.3581746e-04  -3.3548493e-04   1.0281285e-04   1.1332646e-04   0.0000000e+00   0.0000000e+00  -2.1824327e-06  -1.3956475e-04  -3.3714494e-05   1.4555832e-04   1.3567946e-04   6.0903668e-05   3.5374351e-05   1.1844932e-05   1.0550721e-04   9.1951392e-05   1.6881521e-04   2.0390932e-04   1.2862599e-04   1.5924716e-05  -5.6591706e-05   7.9355843e-05   1.2029042e-04   2.1507699e-04   2.6490529e-04   9.2706512e-05   1.4441058e-04   1.7172357e-05   3.6425247e-05   2.6466474e-05  -2.6349331e-05   4.9384317e-05  -1.7379746e-04  -2.3143512e-04   3.6248736e-05   7.7246547e-05   0.0000000e+00  -2.0990973e-06  -1.9299197e-04  -5.1697479e-04   1.4821299e-04   7.4876535e-05   0.0000000e+00   0.0000000e+00  -2.7256553e-04   9.4786301e-05   1.2536289e-04   2.1443050e-04   2.2334503e-04   1.4193560e-04   1.4013505e-04   2.7619918e-04   6.9516853e-05   7.3352329e-05   2.1286383e-04   1.4701286e-04   1.7868666e-04   4.0910389e-05   1.4355155e-04   5.3773158e-05   1.6105842e-04   1.1165116e-04   1.9393457e-04   1.6054043e-04   1.9007537e-04   2.2278764e-04   1.4157032e-04   1.4493847e-04   2.5367824e-04   1.7648634e-04  -4.6661855e-05  -6.5215284e-06   8.3977200e-05   1.1769204e-04   0.0000000e+00   5.1089294e-04   6.9925061e-05   1.9765097e-04   6.6246795e-05   9.9120532e-05   0.0000000e+00   0.0000000e+00   3.2943349e-04  -2.0109938e-04  -2.4531738e-04  -2.5070290e-04  -3.6706425e-04  -1.6291653e-04   3.3177084e-06  -1.6026213e-04  -1.7017711e-05  -1.8348282e-05  -1.7375022e-04  -9.3718723e-05   4.5132153e-05  -2.1397636e-04   1.0242867e-04   6.0813450e-05  -6.2536795e-05  -8.3320362e-05  -3.8066092e-05   2.0220829e-05  -7.3689730e-05  -1.1935522e-04  -1.9634255e-04  -8.4563374e-05  -2.7740123e-04  -1.9299047e-04  -6.7766926e-06  -6.5255141e-05  -1.8954521e-04  -1.3054722e-04   0.0000000e+00   2.5719439e-04  -4.7954975e-05  -1.1224585e-04  -7.7856502e-06  -5.7112738e-05   0.0000000e+00   0.0000000e+00  -8.3810381e-05
  -1.1103000e-04  -1.7240655e-04  -1.6621781e-04  -2.7438847e-04  -1.2829834e-04  -9.8596501e-05   2.1312775e-05  -7.2598459e-05  -1.7546168e-04  -2.3008645e-04  -1.8218791e-04  -8.9808516e-05  -2.2545193e-05   1.3150599e-04  -3.6200555e-05  -2.3151720e-04  -2.3992672e-04  -2.1240189e-04  -1.0226812e-04  -1.5748985e-04  -1.6094395e-04  -1.5279152e-04  -1.2200891e-04  -2.5533816e-04  -2.4395880e-04  -1.7333968e-05  -1.2055256e-05  -1.2985342e-04  -2.2061751e-04   0.0000000e+00  -7.4905614e-05  -3.0937715e-05   1.2102654e-05  -1.0524971e-04  -1.5253633e-04   0.0000000e+00   0.0000000e+00  -1.4265950e-04  -1.0148234e-04  -2.8717895e-04  -1.6128270e-04  -2.5105305e-04  -1.6661841e-04  -1.1571188e-04  -1.9222269e-04  -9.9061455e-05  -1.3104791e-04  -2.1969225e-04  -2.1742431e-04  -2.5471682e-04  -3.0073627e-04  -1.5630397e-04   4.0834522e-08  -1.4006992e-04  -1.1681128e-04  -2.1582249e-04  -2.6100643e-04  -3.4624722e-04  -2.1567791e-04  -2.0182327e-04  -1.3233624e-04  -2.6242665e-04  -3.3749065e-04   1.6001226e-04   1.4248643e-04  -1.7240779e-04  -3.8342862e-04   0.0000000e+00  -3.2633076e-04   1.0279735e-04   2.8467532e-04  -1.3636889e-04  -1.8722720e-04   0.0000000e+00   0.0000000e+00  -4.8510420e-04   9.3327205e-05   1.9411579e-04  -1.8254636e-04  -2.2190745e-04  -1.0259783e-04  -1.4729978e-04  -2.4354296e-04  -9.4708389e-05  -3.7273130e-05  -3.2914385e-04  -3.8544482e-04  -2.2836553e-04  -1.5479564e-04   7.2249525e-05  -1.2215321e-04  -2.8695698e-04  -3.1035633e-04  -2.9632374e-04  -1.9462670e-04  -2.8837005e-04  -1.9814660e-04   2.2535668e-05  -2.0845308e-05  -5.7268495e-05  -1.4668223e-04  -8.0598028e-05  -2.3023993e-04  -1.6561674e-04  -5.7482782e-05   0.0000000e+00   1.6661240e-04  -1.2491437e-04  -2.1681509e-04  -3.5463812e-05  -8.1437373e-05   0.0000000e+00   0.0000000e+00  -2.1313708e-04  -4.4104086e-05  -1.8622512e-05  -1.4424261e-04   1.8495779e-05  -3.8108009e-05   6.8958703e-05  -2.2337240e-04  -4.6129156e-06  -3.0707376e-05   9.6203626e-05   1.0734291e-04   9.0526085e-05  -3.9480395e-05  -1.5825937e-04   3.3682317e-06   1.7052243e-05   1.4847775e-04   1.5338854e-04   3.2704226e-05   1.3203556e-04  -1.7495178e-06  -5.4404883e-05   5.6378559e-05   1.4864082e-05  -3.0689229e-05  -1.8734729e-04  -2.6066076e-04   1.2772894e-05   8.0192432e-05   0.0000000e+00  -1.3051692e-04  -2.0846015e-04  -5.0590950e-04   4.2638889e-05   6.9688597e-05   0.0000000e+00   0.0000000e+00   3.5039224e-05  -1.1536805e-04   7.6895787e-05   1.5409875e-04   6.4095375e-05   1.1683405e-04   2.9965374e-05   1.2705739e-04   1.5486613e-04   1.0936253e-04   1.6465223e-04   1.4093921e-04   7.3069928e-05   1.3814067e-05   9.0695316e-05   7.8627362e-05   1.4252929e-04   1.6475780e-04   2.4897439e-04   1.3066853e-04   1.7459785e-04   1.3726766e-04   1.2519633e-04   6.8846920e-05   1.2322937e-04   2.1450185e-04  -1.9088538e-04  -1.3787646e-04   1.4515711e-04   2.2960509e-04   0.0000000e+00   2.9202596e-05  -1.1682911e-04  -1.5968236e-04   7.9865240e-05   1.0214384e-04   0.0000000e+00   0.0000000e+00  -9.9573915e-06  -1.3250821e-04  -5.3169957e-05   2.2956632e-05  -1.7844621e-05   1.5186372e-05  -1.0286765e-06   1.5247685e-04  -6.1332538e-05  -2.3439835e-05   3.8170065e-06   3.9053959e-05   1.4927866e-05  -3.3964178e-05   3.4705696e-05   2.0025905e-05   1.4222722e-05   4.5718341e-05   9.5590034e-06   2.5296373e-05  -1.2695634e-05   7.2173524e-05  -9.4463028e-06   9.7846306e-06  -1.2433464e-05  -6.0447473e-06   9.9802088e-05   1.1319284e-04  -4.6429186e-05  -1.9621691e-05   0.0000000e+00   9.5309356e-05   1.1699837e-04   2.5488460e-04  -2.4358196e-05   5.0587227e-06   0.0000000e+00   0.0000000e+00  -9.3848200e-05  -6.6974961e-05   7.4805679e-05   9.5063758e-05   1.3744668e-04   8.3251431e-05   7.8317705e-05  -2.0640730e-04  -7.8801258e-05   9.9896818e-05   1.7349544e-04   1.3161759e-04   1.1014844e-04  -7.3148950e-05  -1.8476390e-04  -2.7070174e-06   9.6898217e-05   1.4887749e-04   1.8420277e-04   1.1301393e-04   1.8608030e-04   3.9722890e-05   9.1659059e-05   4.9641930e-05   1.0769328e-04   1.7505169e-04  -9.6358290e-05  -1.4528593e-04   7.1606046e-05   1.7598114e-04   0.0000000e+00  -3.2619230e-05  -1.3322307e-04  -3.3880007e-04   1.0777737e-04   1.1777005e-04   0.0000000e+00   0.0000000e+00   1.1838724e-05  -1.2846488e-04  -3.5200222e-05   1.4988001e-04   1.5515336e-04   6.3448312e-05   3.4013598e-05   1.8735819e-05   1.1281701e-04   1.0351090e-04   1.7313362e-04   2.1237122e-04   1.2033866e-04   2.7913003e-05  -5.7742711e-05   7.9491316e-05   1.3145627e-04   2.2624277e-04   2.6938386e-04   8.4676078e-05   1.3328104e-04   1.4283164e-05   3.2432987e-05   3.0115229e-05  -2.2708144e-05   4.9700678e-05  -1.6422639e-04  -2.1533352e-04   3.8795729e-05   7.0289216e-05   0.0000000e+00   4.4447198e-06  -1.8530203e-04  -5.0742939e-04   1.5247275e-04   7.2331181e-05   0.0000000e+00   0.0000000e+00  -2.5788813e-04   1.0452376e-04   1.2591401e-04   2.1048733e-04   2.1582524e-04   1.3745342e-04   1.3765147e-04   2.7787615e-04   6.8394363e-05   6.6004770e-05   2.0884493e-04   1.4199950e-04   1.7417650e-04   2.6140914e-05   1.3358267e-04   4.8230663e-05   1.5430745e-04   1.0989284e-04   1.8968142e-04   1.5619305e-04   1.8626161e-04   2.1781104e-04   1.3595356e-04   1.4226527e-04   2.4869598e-04   1.7279566e-04  -6.0811999e-05  -2.2720107e-05   8.3457958e-05   1.2218247e-04   0.0000000e+00   5.0606221e-04   5.7393229e-05   1.6892354e-04   6.3490813e-05   9.9324164e-05   0.0000000e+00   0.0000000e+00   3.2712466e-04  -2.0187785e-04  -2.3579662e-04  -2.4470853e-04  -3.6576590e-04  -1.6200559e-04   6.1128043e-06  -1.6193036e-04  -1.9020151e-05  -1.4882678e-05  -1.6879305e-04  -9.2666642e-05   4.4242751e-05  -2.1115439e-04   1.0174747e-04   5.6881909e-05  -5.9590280e-05  -8.6325725e-05  -3.9944519e-05   2.3557933e-05  -6.6111075e-05  -1.1448984e-04  -1.8641886e-04  -7.8371658e-05  -2.5806520e-04  -1.7917815e-04  -4.4143356e-07  -5.5005063e-05  -1.8011405e-04  -1.1859000e-04   0.0000000e+00   2.7554356e-04  -4.1736883e-05  -9.9266552e-05  -1.0786435e-05  -5.5988543e-05   0.0000000e+00   0.0000000e+00  -7.4815137e-05
