  -6.1633758e-06   1.6427732e-05   8.4836730e-05   1.1534792e-04   5.1322168e-05   4.0657841e-05   1.0717060e-04  -5.7111214e-06   4.7352668e-05   5.6658825e-05   2.8665926e-05   9.0809824e-05   6.0018099e-05   3.1999387e-05   2.4573291e-05  -5.0984429e-05  -6.9883790e-05  -1.3703128e-05   7.7948958e-05   8.2384748e-05   8.5431070e-06   0.0000000e+00  -1.7348506e-05   3.5049312e-05   2.4414784e-05   2.2826898e-05   4.8870867e-05   1.8903039e-05   5.1404874e-06   4.6288931e-05   6.0499818e-05   1.7923404e-05   1.1215231e-05   5.4986217e-06   1.5361905e-05   1.8449622e-06   7.9771544e-05   5.2546589e-05  -8.3907720e-05  -1.6345517e-04  -1.2107941e-04   5.6316871e-05  -8.7924103e-05  -2.5088655e-05  -2.6632779e-04  -2.1078736e-04  -1.0192293e-04  -1.6724085e-04  -1.7292849e-04  -7.0305475e-05  -1.5767692e-04   3.5994675e-05   5.7334459e-05  -1.2548597e-04  -1.8772661e-04  -9.6068773e-05  -7.0447261e-05  -1.9461825e-04  -1.7206981e-04   0.0000000e+00  -1.3899784e-04  -2.1477422e-04  -1.2096588e-04  -1.4312685e-04  -2.9779629e-05  -3.1546901e-05  -5.8676392e-05   9.7563810e-06  -6.0960310e-05  -1.0453022e-04  -1.6235321e-04  -2.3409788e-05   4.1014502e-05  -5.8683070e-05   3.2662652e-05  -9.9905417e-05   1.2538578e-05  -1.3195612e-05  -1.4649621e-04  -6.3494110e-05  -3.2023857e-05  -4.9190666e-05  -1.6204634e-04  -2.0207205e-04  -1.3021682e-04  -8.2973451e-05  -3.1582606e-04  -1.4325855e-04  -2.7579867e-04  -1.8581274e-04  -6.9973963e-05  -1.5805229e-04  -2.8932022e-04  -2.3288996e-04  -5.3414309e-05  -2.7891621e-04  -5.4671114e-04   0.0000000e+00  -3.4016909e-04  -1.0096218e-05  -7.2990333e-06  -6.5608649e-04  -3.6037752e-04  -2.5301934e-04  -9.4501567e-05  -3.5745471e-05   1.6195442e-05  -3.7701404e-04  -2.4326176e-04  -2.0450223e-04  -1.4269608e-04   4.5137599e-05  -7.1765325e-05  -1.0395133e-04  -2.7456529e-05  -9.2768848e-05  -2.0996869e-05   5.2175868e-05  -2.9323786e-05  -2.2356047e-05   1.5383325e-04   3.0384613e-05   5.2340937e-05  -8.2469262e-05  -7.1180152e-05  -1.3835505e-05   8.0311683e-05   4.0346880e-05   2.3857372e-05  -4.8596636e-05  -7.3620589e-05   9.5855501e-06   2.0572157e-05  -1.0480439e-05   5.8801966e-05   0.0000000e+00   2.3210324e-05  -8.0325852e-05  -8.1262691e-05   4.4012667e-05  -1.0512789e-05  -1.0156080e-04  -5.1476605e-05  -2.5204658e-05   4.5002377e-05   7.5643322e-05   3.2401560e-05   2.9896845e-06  -7.7167730e-05  -1.0239551e-05   5.4990095e-05   1.4824106e-05   1.0171476e-05   4.6184569e-05  -8.9646076e-05   4.9346240e-05   4.7664829e-06   1.8290862e-04   7.2437048e-05  -1.9673831e-05  -2.7516304e-05  -3.9697231e-05   6.9777250e-05   3.3235569e-04   1.1203178e-04   3.4695517e-05   6.3613337e-05   1.0405553e-05  -1.8661301e-05   1.7829928e-04   4.3243215e-04   3.2174109e-04   4.2002932e-04   0.0000000e+00   1.3610033e-04   1.5826163e-04  -1.2749633e-05   3.6894376e-04   4.0505250e-04   7.1819249e-05  -1.5289519e-05   4.7453290e-06  -1.9494974e-04   5.2162728e-04   3.8937307e-04   4.0844532e-05   2.2937500e-04   7.4395894e-05  -4.3120092e-05  -1.0051871e-04   8.7462540e-06  -2.8675267e-05  -5.7020600e-05   6.0831521e-05   2.0141218e-06   3.1530141e-05  -1.6377375e-05  -5.4147086e-05  -5.3519735e-05  -6.5163623e-05  -5.0688058e-05   5.0244713e-05  -3.3426139e-05  -3.6010665e-05  -5.8470781e-05  -9.6369135e-05  -6.8461573e-05  -2.5829881e-05   6.0008579e-05   3.0082779e-05   3.2437424e-05   0.0000000e+00   2.4541299e-06  -2.2428294e-05  -4.9288155e-05   3.9149358e-05  -2.2013080e-05  -2.2930282e-05  -7.5974644e-06  -3.2775342e-05   1.1117719e-05   5.3682608e-05  -3.9199910e-06  -4.4938078e-05   3.8488875e-05  -6.2848223e-05  -7.1447116e-05  -9.2421163e-06   2.2376735e-04   1.6395071e-04   7.4034141e-05   1.6994687e-04   1.4775055e-04   7.5742446e-05   1.2527523e-05   1.3500194e-04  -3.5828413e-05   1.7408774e-04   1.8399358e-04   9.1538292e-05   2.1377174e-04   1.4265566e-04   1.8777296e-06   1.3571638e-04   1.7316141e-04   1.6731833e-04   8.6802253e-05   8.3210228e-05   1.8795983e-04   0.0000000e+00   1.1639979e-04   1.7363905e-04   1.6012763e-04   1.2276507e-04   1.8836819e-04   1.0085885e-04   9.1468123e-05   1.3126060e-04   2.0046875e-04   1.6122919e-04   1.3457088e-04   7.4456049e-05   1.7058167e-04   1.7018654e-04  -1.5696151e-05   1.0893297e-04   5.3857148e-05   2.0219965e-04   5.9953014e-05  -3.7670707e-05   8.0395654e-05   1.0814131e-04   1.3177689e-04   1.9260363e-05   1.7779069e-04   8.5277724e-05   2.5069159e-04   2.0722390e-04  -3.2809799e-05   4.7878242e-05   1.3770663e-04   1.5106690e-04   5.6923220e-05   2.5540197e-04   3.8230139e-04   3.2102712e-04   2.9434626e-04   0.0000000e+00   2.1515175e-04   2.4496092e-04   9.9872525e-05   3.3942071e-04   3.7596926e-04   2.4028260e-04   6.7817614e-05   1.2034111e-05   5.6208162e-05   3.0124865e-04   4.4859672e-04   1.5828460e-04   1.7070821e-04   6.9244177e-05   2.1779641e-04   6.6739449e-05   2.2252847e-05   9.2164172e-05  -2.8628856e-04   2.0676475e-04   1.1621313e-04   1.0931835e-04  -6.4168494e-04  -1.0894499e-03  -3.0339839e-04   7.6832461e-05   3.8189260e-04   2.7349226e-04  -8.5342206e-04  -3.3022638e-04  -3.4493668e-04  -3.1927240e-04   1.2438265e-04   3.6336728e-04   2.9080002e-04   1.9887389e-04  -4.1420249e-05   0.0000000e+00   2.8208860e-05   1.2465216e-04  -2.6888660e-05   5.4376525e-05   3.6891369e-04   5.3579740e-05  -2.7724648e-06  -8.5738044e-05  -1.4099764e-04   3.8110224e-05   4.2127547e-04   2.0939247e-04   1.2551737e-04  -4.9750735e-05  -2.3492565e-04  -4.7094138e-04   1.6538568e-05   2.4334183e-04   3.4892804e-05   2.6582111e-04  -9.0244551e-06   7.1734798e-05   6.3570518e-04   1.8438629e-04   4.4298105e-04  -1.3138665e-04  -1.4397149e-04   1.7078918e-04   3.7940584e-04   3.3315126e-04   3.5049103e-04   9.0431266e-05  -2.7139717e-04   1.0293154e-04   3.5311246e-04   1.5430993e-04   1.8682716e-04   0.0000000e+00  -2.0636035e-05   4.0722181e-04  -4.7039422e-06   1.8598849e-04   1.4608454e-04   1.7120588e-05  -1.0920258e-05   1.2990339e-05  -4.7478519e-05   3.4533210e-04   1.6049900e-04  -1.6872367e-05   1.8249833e-04  -5.6363080e-05   3.1860653e-04   1.5825688e-04   5.2243905e-05   1.6778767e-05  -4.4695988e-05  -3.4508424e-06  -4.6620074e-06  -6.1695703e-06  -1.6129213e-04  -6.1726210e-05  -3.2411659e-05   3.8983531e-05   6.3405617e-05   1.3711969e-05  -2.0489716e-04  -1.5606400e-04   7.9275354e-05   9.1616735e-05   1.1773051e-04   1.2233831e-04   1.4793458e-04   1.2395019e-04   3.0550887e-04   0.0000000e+00   2.2215765e-04   5.5826975e-05   1.1624778e-05   4.6178478e-04   2.3048731e-04   1.0730344e-04  -2.5525189e-05  -1.5944865e-05   1.2534793e-04   3.6876134e-04   3.3224563e-04   4.4674516e-05  -2.2279872e-05   8.1284128e-05  -2.4833707e-05   2.8636359e-05
  -4.0125712e-06   2.3949338e-05   9.5095500e-05   1.3630864e-04   6.0179160e-05   5.3532304e-05   1.2676986e-04  -3.0813068e-06   5.9161247e-05   6.5949416e-05   4.2708619e-05   1.1860585e-04   6.9185980e-05   3.7458512e-05   2.8484645e-05  -5.3552924e-05  -7.6429984e-05  -2.8765094e-06   1.0843306e-04   1.1293349e-04   2.9259450e-05   0.0000000e+00  -7.0397412e-06   4.5725106e-05   2.7943360e-05   4.7393123e-05   7.4262259e-05   2.6048464e-05   6.2740225e-06   5.0345288e-05   6.9007621e-05   3.9110663e-05   3.5226194e-05   1.2578293e-05   2.5007665e-05   4.0258602e-06   9.5528482e-05   6.2779500e-05  -7.2432090e-05  -1.5237293e-04  -1.2434339e-04   7.8058144e-05  -8.6465473e-05  -2.1131164e-05  -3.0445223e-04  -2.3934684e-04  -1.0282909e-04  -1.6401874e-04  -1.6146033e-04  -5.5649708e-05  -1.7386351e-04   4.3526124e-05   5.2672881e-05  -1.3882498e-04  -2.0282955e-04  -1.0768706e-04  -7.5483995e-05  -2.1395102e-04  -1.9563639e-04   0.0000000e+00  -1.4953785e-04  -2.1063999e-04  -1.0082310e-04  -1.7209024e-04  -7.0315798e-05  -2.2812882e-05  -3.8170671e-05   2.9199202e-05  -2.5969548e-05  -1.1799925e-04  -1.8196712e-04  -2.8740920e-05   6.1279923e-05  -4.7197353e-05   4.4031498e-05  -1.0017563e-04   2.6816306e-05  -2.8851152e-05  -1.6473557e-04  -6.9053014e-05  -3.7901972e-05  -6.9569372e-05  -1.8170379e-04  -2.3467762e-04  -1.4829126e-04  -1.0842303e-04  -3.7942976e-04  -1.8781601e-04  -3.2262732e-04  -2.2389898e-04  -8.7150883e-05  -1.9372712e-04  -3.6144172e-04  -2.8072437e-04  -9.5663757e-05  -3.4634184e-04  -6.1806601e-04   0.0000000e+00  -3.9279823e-04  -1.7389340e-05  -5.3488657e-06  -7.4295344e-04  -4.4072768e-04  -2.8582091e-04  -1.0163034e-04  -2.7349449e-05   1.4461669e-05  -4.2648640e-04  -3.0009516e-04  -2.4125421e-04  -1.5737706e-04   5.6698906e-05  -8.3335567e-05  -1.0930716e-04  -2.7259837e-05  -8.4436876e-05  -2.3428163e-05   6.9410915e-05  -3.8114870e-05  -1.6910448e-05   1.6362459e-04   3.0466347e-05   5.1236404e-05  -8.3506628e-05  -6.8628361e-05  -7.4051524e-06   9.1572281e-05   4.1951684e-05   1.6352854e-05  -5.9137969e-05  -7.3738458e-05   6.7108474e-06   1.6025687e-05  -1.0470863e-05   5.6634096e-05   0.0000000e+00   2.2689112e-05  -7.2438568e-05  -8.4291979e-05   5.1421633e-05  -6.3774708e-06  -1.0307665e-04  -5.1990100e-05  -2.3220247e-05   4.3636090e-05   7.6919282e-05   2.9645034e-05   7.0332464e-06  -7.5083032e-05  -1.5325887e-06   5.8407673e-05   1.2193577e-05   7.5268338e-06   6.3200140e-05  -1.1529382e-04   2.6668647e-05   5.0726253e-06   2.1182392e-04   6.3786068e-05  -1.4720637e-05  -4.8831990e-05  -5.4245422e-05   9.0316737e-05   3.8506429e-04   1.1821841e-04   2.8310369e-05   5.8486393e-05   3.3044586e-06  -6.6134342e-06   2.1072306e-04   4.9508710e-04   3.6295727e-04   4.6436293e-04   0.0000000e+00   1.4435873e-04   1.7955003e-04  -3.9917903e-06   3.9959684e-04   4.6204327e-04   7.6762963e-05  -1.3687640e-05   4.0602075e-06  -2.2275933e-04   5.7765886e-04   4.3162125e-04   4.9908615e-05   2.5893998e-04   8.7221941e-05  -6.5874470e-05  -1.1758124e-04   1.1361368e-05  -3.0847324e-05  -6.6323694e-05   5.8755103e-05  -4.5566360e-06   3.2480319e-05  -2.4051605e-05  -5.4679619e-05  -6.2363022e-05  -7.0924480e-05  -5.4070031e-05   4.7493704e-05  -3.5587415e-05  -3.8469279e-05  -6.9309304e-05  -1.0089844e-04  -6.2557011e-05  -3.7910153e-05   4.5959855e-05   2.2532914e-05   3.2311732e-05   0.0000000e+00   2.6348667e-06  -2.0233625e-05  -4.8073154e-05   3.6829337e-05  -3.5300490e-05  -2.3728376e-05  -5.5927831e-06  -3.6829644e-05   3.7003843e-06   5.0060265e-05  -1.4696985e-05  -4.6735175e-05   4.2501146e-05  -6.2931673e-05  -8.8347807e-05  -1.1008047e-05   2.3273709e-04   1.8001501e-04   7.7908506e-05   1.6502704e-04   1.5989158e-04   9.0054766e-05   2.1416757e-06   1.3666684e-04  -4.4617664e-05   1.9911887e-04   2.2544198e-04   1.3560558e-04   2.3659584e-04   1.4882621e-04  -2.8240524e-06   1.5418978e-04   1.9976339e-04   1.8167649e-04   9.4290680e-05   9.9279224e-05   2.0488362e-04   0.0000000e+00   1.3472241e-04   1.9026281e-04   1.7475980e-04   1.2510223e-04   1.9480413e-04   1.1639906e-04   9.5769582e-05   1.3487136e-04   2.0037071e-04   1.6150876e-04   1.3751325e-04   7.2619350e-05   1.8751464e-04   1.8694528e-04  -3.6006164e-05   1.0508862e-04   5.7018651e-05   2.0500155e-04   4.1891839e-05  -6.8491753e-05   7.6982076e-05   1.0392222e-04   1.2296975e-04   2.4110010e-05   1.7143345e-04   8.6593216e-05   2.5733089e-04   1.9520144e-04  -3.6921999e-05   5.0839692e-05   1.3803983e-04   1.6155562e-04   6.7080265e-05   2.5908997e-04   3.7981044e-04   3.2340207e-04   3.2650814e-04   0.0000000e+00   2.4337074e-04   2.5388931e-04   9.8630024e-05   3.3929094e-04   3.7292836e-04   2.5005015e-04   7.2373300e-05   3.7843596e-06   5.2175367e-05   3.3278169e-04   4.7045853e-04   1.6309108e-04   1.7680312e-04   8.0517069e-05   2.1106008e-04   6.9898072e-05  -6.6989395e-06   6.4590708e-05  -3.5434504e-04   1.7200066e-04   1.1854172e-04   1.0475042e-04  -7.3415270e-04  -1.2358420e-03  -3.4610535e-04   2.7245107e-05   3.6035699e-04   2.7703803e-04  -9.4837773e-04  -3.8376881e-04  -4.1656889e-04  -3.7935621e-04   1.1547371e-04   3.9348764e-04   3.3694077e-04   2.0329493e-04  -8.9032442e-05   0.0000000e+00  -7.2867168e-06   1.1070721e-04  -3.9299552e-05   5.2415756e-05   4.2781731e-04   6.6155825e-05  -1.6745883e-05  -1.1772666e-04  -1.8524097e-04   1.0217084e-05   4.6275524e-04   2.1250864e-04   1.1161298e-04  -8.8001336e-05  -3.0451058e-04  -5.3537389e-04   6.6171381e-06   2.6961623e-04   4.2728601e-05   3.0165098e-04  -1.1384478e-05   1.0779208e-04   7.1360448e-04   2.2799632e-04   4.9638018e-04  -1.4084047e-04  -1.3205172e-04   2.3451803e-04   4.2333839e-04   3.8526198e-04   3.9168161e-04   1.1018239e-04  -2.7875632e-04   1.2086382e-04   4.2258551e-04   1.9936214e-04   2.2840102e-04   0.0000000e+00  -2.2117627e-05   4.6860812e-04   2.7672443e-06   2.2354604e-04   1.9848782e-04   2.7291430e-05  -8.4790258e-06   1.4915816e-05  -7.5780096e-05   4.1227386e-04   1.9555493e-04  -9.2258517e-06   2.3201960e-04  -4.9613855e-05   3.2907124e-04   1.7235129e-04   6.5121972e-05   2.5716975e-05  -5.6876385e-05  -1.2339960e-05  -8.2437867e-06  -2.8361085e-06  -1.7638597e-04  -5.5937647e-05  -2.6190948e-05   3.3105242e-05   6.0499759e-05   1.3590875e-05  -2.1983260e-04  -1.5575870e-04   9.9223194e-05   1.1272186e-04   1.3046909e-04   1.1715135e-04   1.7599095e-04   1.3786066e-04   3.6748283e-04   0.0000000e+00   2.5500962e-04   5.2663432e-05   1.4562039e-05   5.1902320e-04   2.4818291e-04   1.1468279e-04  -2.4111201e-05  -1.6235417e-05   1.4504890e-04   4.3512580e-04   3.8687006e-04   4.1128938e-05  -9.7871507e-06   1.0210381e-04  -2.9120817e-05   3.6473802e-05
  -1.6773419e-06   3.1892972e-05   1.0365397e-04   1.5554079e-04   6.8536427e-05   6.6803911e-05   1.4528457e-04   3.5721407e-07   7.0792365e-05   7.4402416e-05   5.7715793e-05   1.4748362e-04   7.7523455e-05   4.2649907e-05   3.1952199e-05  -5.4589564e-05  -8.1497840e-05   1.0330338e-05   1.4110186e-04   1.4521191e-04   5.2867252e-05   0.0000000e+00   5.4445435e-06   5.6369404e-05   3.0890941e-05   7.4939064e-05   1.0177691e-04   3.3338691e-05   7.1536308e-06   5.3009524e-05   7.6399707e-05   6.2973832e-05   6.2664852e-05   2.0453528e-05   3.5316105e-05   6.1349718e-06   1.1002491e-04   7.2483920e-05  -5.5577887e-05  -1.3167990e-04  -1.2447070e-04   1.0666847e-04  -8.0038685e-05  -1.2906662e-05  -3.4152261e-04  -2.6911451e-04  -1.0186014e-04  -1.5362795e-04  -1.4056243e-04  -3.1930256e-05  -1.8733751e-04   5.1716255e-05   4.5905545e-05  -1.5042995e-04  -2.1352621e-04  -1.1692092e-04  -7.6722543e-05  -2.2499443e-04  -2.1411484e-04   0.0000000e+00  -1.5497697e-04  -1.9654412e-04  -7.1561218e-05  -1.9652008e-04  -1.1169509e-04  -9.9031881e-06  -1.2031218e-05   5.1626251e-05   1.7062172e-05  -1.2758352e-04  -1.9878524e-04  -3.3281151e-05   8.5550380e-05  -3.1525119e-05   5.6194062e-05  -9.6536477e-05   4.7183050e-05  -4.2696528e-05  -1.7770933e-04  -7.0606300e-05  -4.1962145e-05  -8.8666913e-05  -1.9688359e-04  -2.6243284e-04  -1.6324911e-04  -1.3160812e-04  -4.3259531e-04  -2.2844270e-04  -3.6323461e-04  -2.5961149e-04  -1.0393035e-04  -2.2584295e-04  -4.2795639e-04  -3.2183090e-04  -1.3752607e-04  -4.0917620e-04  -6.7774746e-04   0.0000000e+00  -4.3941695e-04  -2.4221158e-05  -1.8601004e-06  -8.1583120e-04  -5.1475547e-04  -3.1151993e-04  -1.0527147e-04  -1.5722563e-05   1.1289002e-05  -4.6762872e-04  -3.5329413e-04  -2.7279449e-04  -1.6697121e-04   6.8652533e-05  -9.3959528e-05  -1.1052379e-04  -2.5636346e-05  -7.1515939e-05  -2.4464276e-05   8.6116028e-05  -4.6437921e-05  -9.9747050e-06   1.7155712e-04   3.2241075e-05   4.9109349e-05  -8.0852254e-05  -6.2177311e-05   5.8483245e-07   1.0357934e-04   4.3782685e-05   7.5439190e-06  -6.7658059e-05  -6.9869641e-05   3.6668557e-06   1.0163687e-05  -9.6934774e-06   5.2826577e-05   0.0000000e+00   2.2043862e-05  -6.2766960e-05  -8.4881213e-05   5.8828708e-05  -1.0015132e-06  -1.0092081e-04  -5.0867368e-05  -2.0060490e-05   4.0123355e-05   7.6017194e-05   2.5640562e-05   1.1608613e-05  -7.0294746e-05   8.7445275e-06   6.3152323e-05   9.2797504e-06   5.3173989e-06   8.4429514e-05  -1.4040503e-04  -8.7576048e-07   5.9130009e-06   2.3706319e-04   5.1438952e-05  -8.9280189e-06  -7.1668015e-05  -6.8330155e-05   1.1137016e-04   4.3106108e-04   1.2119562e-04   1.9923797e-05   5.1083266e-05  -3.8667272e-06   7.8956939e-06   2.4189488e-04   5.4996856e-04   3.9765346e-04   4.9809820e-04   0.0000000e+00   1.4925007e-04   2.0158951e-04   7.4845379e-06   4.2058663e-04   5.1132395e-04   8.0126929e-05  -1.0345745e-05   3.7184625e-06  -2.4428711e-04   6.2028994e-04   4.6583704e-04   5.9235248e-05   2.8379009e-04   9.8690782e-05  -8.6912151e-05  -1.3309897e-04   1.3131663e-05  -3.1673174e-05  -7.4817258e-05   5.4605218e-05  -1.2037810e-05   3.2918297e-05  -3.2293480e-05  -5.3072591e-05  -7.0571858e-05  -7.4392004e-05  -5.4979066e-05   4.3691465e-05  -3.6625828e-05  -4.0436034e-05  -7.9545999e-05  -1.0214909e-04  -5.2870663e-05  -4.9428053e-05   2.9157468e-05   1.4013637e-05   3.1482276e-05   0.0000000e+00   2.9713922e-06  -1.5772917e-05  -4.4646955e-05   3.3369633e-05  -4.7697031e-05  -2.3017970e-05  -2.9851017e-06  -4.0159946e-05  -5.8584155e-06   4.4831885e-05  -2.5312109e-05  -4.6594505e-05   4.6175658e-05  -6.0261525e-05  -1.0648145e-04  -1.3666803e-05   2.3479230e-04   1.9307034e-04   8.0363042e-05   1.5413589e-04   1.6783996e-04   1.0350134e-04  -6.3256472e-06   1.3485073e-04  -4.9308947e-05   2.2106396e-04   2.6636847e-04   1.8145496e-04   2.5528259e-04   1.5115575e-04  -5.3858225e-06   1.7057933e-04   2.2224063e-04   1.9131041e-04   1.0041800e-04   1.1402517e-04   2.1592583e-04   0.0000000e+00   1.5100462e-04   2.0350076e-04   1.8506081e-04   1.2244983e-04   1.9431355e-04   1.2983274e-04   9.7950856e-05   1.3503634e-04   1.9366087e-04   1.5482194e-04   1.3513740e-04   6.7698663e-05   2.0032668e-04   1.9933114e-04  -5.3842518e-05   9.9201446e-05   6.2004627e-05   2.0585059e-04   1.9617765e-05  -9.8407892e-05   7.0559597e-05   9.6219160e-05   1.0710419e-04   2.9111299e-05   1.5622873e-04   8.6216605e-05   2.5663700e-04   1.7464489e-04  -3.9326058e-05   5.2417414e-05   1.3184628e-04   1.6795611e-04   7.7569606e-05   2.5328331e-04   3.6067032e-04   3.1372662e-04   3.5140147e-04   0.0000000e+00   2.6744538e-04   2.6054647e-04   9.5839345e-05   3.2615433e-04   3.5504937e-04   2.5395885e-04   7.6789026e-05  -5.0657473e-06   4.4784412e-05   3.5645934e-04   4.7673525e-04   1.6323587e-04   1.8097524e-04   9.2821525e-05   1.9199190e-04   7.1427970e-05  -3.7006632e-05   3.1135739e-05  -4.2867952e-04   1.2344746e-04   1.1239020e-04   9.2643603e-05  -8.3532227e-04  -1.3807648e-03  -3.9328318e-04  -3.5791469e-05   3.1404773e-04   2.6165707e-04  -1.0365081e-03  -4.3862173e-04  -4.9374666e-04  -4.4089305e-04   1.0139358e-04   4.0862469e-04   3.6986069e-04   1.9473229e-04  -1.4240043e-04   0.0000000e+00  -4.9629181e-05   9.0393665e-05  -5.1308695e-05   4.5510523e-05   4.7728428e-04   7.7992294e-05  -3.1163834e-05  -1.5159881e-04  -2.3058004e-04  -2.5638981e-05   4.8814617e-04   2.0621938e-04   9.0244340e-05  -1.3015885e-04  -3.8831425e-04  -5.9885586e-04  -5.2515426e-06   2.8581117e-04   5.2195874e-05   3.2948779e-04  -1.2814171e-05   1.4472763e-04   7.8303734e-04   2.7745818e-04   5.4325309e-04  -1.4550992e-04  -1.1212895e-04   2.9867479e-04   4.6395802e-04   4.3609277e-04   4.2817637e-04   1.3239302e-04  -2.7547931e-04   1.3777097e-04   4.8609846e-04   2.4437143e-04   2.6841686e-04   0.0000000e+00  -2.1825756e-05   5.1653623e-04   1.1910632e-05   2.5807153e-04   2.4955559e-04   3.7189244e-05  -4.7809749e-06   1.6693959e-05  -1.0336032e-04   4.7258040e-04   2.2825617e-04   1.9470243e-07   2.7791586e-04  -3.9674591e-05   3.3172821e-04   1.8348931e-04   7.9811228e-05   3.3940394e-05  -6.8331085e-05  -1.9226224e-05  -1.1332543e-05   2.5259776e-06  -1.9005200e-04  -5.0279513e-05  -2.1114153e-05   2.6666231e-05   5.8159557e-05   1.6534917e-05  -2.3045341e-04  -1.5210814e-04   1.1698223e-04   1.3351217e-04   1.4343245e-04   1.0808520e-04   2.0585381e-04   1.5169940e-04   4.2868961e-04   0.0000000e+00   2.8459872e-04   4.4882072e-05   1.6776236e-05   5.6795634e-04   2.6079012e-04   1.1909187e-04  -2.1191519e-05  -1.6081338e-05   1.6847280e-04   4.9715438e-04   4.3703441e-04   3.6300446e-05   5.2645319e-06   1.2226990e-04  -3.4903341e-05   4.2601060e-05
   5.9679662e-07   3.9893437e-05   1.1017721e-04   1.7223984e-04   7.6099901e-05   7.9998525e-05   1.6202984e-04   4.4567611e-06   8.1744097e-05   8.1676907e-05   7.3096426e-05   1.7648415e-04   8.4701550e-05   4.7383110e-05   3.4824595e-05  -5.4092135e-05  -8.4957393e-05   2.5488940e-05   1.7492129e-04   1.7812530e-04   7.8569871e-05   0.0000000e+00   1.9666849e-05   6.6498779e-05   3.3059698e-05   1.0455133e-04   1.3050029e-04   4.0450708e-05   7.6582619e-06   5.4117770e-05   8.2305131e-05   8.8742015e-05   9.2646105e-05   2.8810647e-05   4.5823128e-05   8.0088572e-06   1.2252968e-04   8.1204764e-05  -3.3898390e-05  -1.0315400e-04  -1.2212131e-04   1.4156017e-04  -6.8808860e-05  -3.7092153e-07  -3.7760290e-04  -3.0047246e-04  -1.0004000e-04  -1.3660116e-04  -1.1132760e-04   5.2936571e-08  -1.9811914e-04   6.0096749e-05   3.7152680e-05  -1.6023222e-04  -2.1940046e-04  -1.2357941e-04  -7.4617732e-05  -2.2710282e-04  -2.2643497e-04   0.0000000e+00  -1.5487258e-04  -1.7342953e-04  -3.4393940e-05  -2.1485897e-04  -1.5135696e-04   6.8605978e-06   1.8594750e-05   7.6175264e-05   6.6028516e-05  -1.3270377e-04  -2.1247215e-04  -3.6689131e-05   1.1302182e-04  -1.2213533e-05   6.8190369e-05  -8.9305290e-05   7.3067298e-05  -5.3447323e-05  -1.8470366e-04  -6.7982648e-05  -4.3967530e-05  -1.0519063e-04  -2.0699022e-04  -2.8403312e-04  -1.7451270e-04  -1.5124276e-04  -4.7186716e-04  -2.6230505e-04  -3.9570379e-04  -2.9144451e-04  -1.1962048e-04  -2.5254714e-04  -4.8527187e-04  -3.5345971e-04  -1.7580280e-04  -4.6392059e-04  -7.2319877e-04   0.0000000e+00  -4.7811542e-04  -3.0167202e-05   2.9615203e-06  -8.7149466e-04  -5.7832952e-04  -3.2873315e-04  -1.0537335e-04  -1.4038563e-06   6.6408296e-06  -4.9842100e-04  -3.9977865e-04  -2.9734781e-04  -1.7101462e-04   8.0476692e-05  -1.0351340e-04  -1.0811638e-04  -2.2749610e-05  -5.4832604e-05  -2.4028462e-05   1.0114563e-04  -5.3934089e-05  -2.0912634e-06   1.7814224e-04   3.6331827e-05   4.6316066e-05  -7.4773588e-05  -5.2261736e-05   9.5055620e-06   1.1630546e-04   4.6210292e-05  -1.9512075e-06  -7.3580902e-05  -6.2153958e-05   5.4930827e-07   3.0091480e-06  -8.3848444e-06   4.7636705e-05   0.0000000e+00   2.1448638e-05  -5.2576439e-05  -8.3281671e-05   6.5785921e-05   5.0270332e-06  -9.5503052e-05  -4.8434272e-05  -1.6051851e-05   3.4524404e-05   7.2904639e-05   2.0366822e-05   1.6387949e-05  -6.3498965e-05   1.9897851e-05   6.9911349e-05   6.2974215e-06   3.6726186e-06   1.1033337e-04  -1.6409126e-04  -3.1781033e-05   7.2881468e-06   2.5750130e-04   3.5909827e-05  -3.0865698e-06  -9.4868640e-05  -8.1400148e-05   1.3178232e-04   4.6824608e-04   1.2082042e-04   9.9038230e-06   4.2175117e-05  -1.0611328e-05   2.3933882e-05   2.7073722e-04   5.9503570e-04   4.2461043e-04   5.1992376e-04   0.0000000e+00   1.5069967e-04   2.2477040e-04   2.1512446e-05   4.3151158e-04   5.5070304e-04   8.2056832e-05  -5.2884777e-06   3.7983944e-06  -2.5865885e-04   6.4787466e-04   4.9107845e-04   6.8467029e-05   3.0323467e-04   1.0815550e-04  -1.0482309e-04  -1.4665788e-04   1.3840244e-05  -3.1018282e-05  -8.2206003e-05   4.8868390e-05  -2.0027337e-05   3.2974313e-05  -4.0684148e-05  -4.9341031e-05  -7.7845647e-05  -7.5414753e-05  -5.3332273e-05   3.9287887e-05  -3.6427193e-05  -4.1990512e-05  -8.8756968e-05  -1.0009774e-04  -3.9846687e-05  -5.9617719e-05   1.0728492e-05   5.1551436e-06   3.0112431e-05   0.0000000e+00   3.4333702e-06  -9.2096407e-06  -3.9244620e-05   2.9104049e-05  -5.8202612e-05  -2.0716087e-05   1.1061159e-07  -4.2664719e-05  -1.7245747e-05   3.8464740e-05  -3.4955044e-05  -4.4506963e-05   4.9512597e-05  -5.5030408e-05  -1.2549368e-04  -1.7312000e-05   2.3022869e-04   2.0298320e-04   8.1590423e-05   1.3835669e-04   1.7116744e-04   1.1539789e-04  -1.0974402e-05   1.3067245e-04  -4.8486211e-05   2.3888262e-04   3.0491197e-04   2.2642450e-04   2.6983048e-04   1.5029044e-04  -4.7575253e-06   1.8438346e-04   2.3918279e-04   1.9562573e-04   1.0496689e-04   1.2657438e-04   2.2039636e-04   0.0000000e+00   1.6442988e-04   2.1309338e-04   1.9067117e-04   1.1461611e-04   1.8664504e-04   1.4045702e-04   9.8168291e-05   1.3205687e-04   1.8077082e-04   1.4126078e-04   1.2727586e-04   5.9861358e-05   2.0849583e-04   2.0673717e-04  -6.6800325e-05   9.2539287e-05   6.9491435e-05   2.0594084e-04  -5.6224712e-06  -1.2597743e-04   6.1746288e-05   8.5668773e-05   8.4776433e-05   3.4038360e-05   1.3286363e-04   8.4628985e-05   2.4938319e-04   1.4674474e-04  -3.9860081e-05   5.2659463e-05   1.1936476e-04   1.7034511e-04   8.8412754e-05   2.3872462e-04   3.2594780e-04   2.9269416e-04   3.6786749e-04   0.0000000e+00   2.8653797e-04   2.6616472e-04   9.2439266e-05   3.0102853e-04   3.2358381e-04   2.5260927e-04   8.1410849e-05  -1.3846117e-05   3.4370953e-05   3.7114292e-04   4.6739643e-04   1.5909075e-04   1.8405074e-04   1.0619005e-04   1.6129971e-04   7.1427421e-05  -6.6146223e-05  -5.4456226e-06  -5.0770145e-04   6.3448972e-05   9.6404648e-05   7.2602211e-05  -9.4550611e-04  -1.5240345e-03  -4.4429440e-04  -1.0991266e-04   2.4365837e-04   2.2488723e-04  -1.1180390e-03  -4.9462821e-04  -5.7517987e-04  -5.0218395e-04   8.3328019e-05   4.0667258e-04   3.8460772e-04   1.7163680e-04  -1.9979344e-04   0.0000000e+00  -9.7376334e-05   6.5225225e-05  -6.2178946e-05   3.2882851e-05   5.1402885e-04   8.8672876e-05  -4.5162601e-05  -1.8584933e-04  -2.7522392e-04  -6.9183841e-05   4.9440018e-04   1.9063490e-04   6.2559132e-05  -1.7439338e-04  -4.8337062e-04  -6.6053142e-04  -1.7925026e-05   2.9004337e-04   6.3716229e-05   3.4794925e-04  -1.2886249e-05   1.8004448e-04   8.4276748e-04   3.3204516e-04   5.8325804e-04  -1.4483485e-04  -8.4933155e-05   3.5919581e-04   5.0078220e-04   4.8485418e-04   4.5986899e-04   1.5733124e-04  -2.6184067e-04   1.5312874e-04   5.3944117e-04   2.8665334e-04   3.0468831e-04   0.0000000e+00  -1.9243595e-05   5.4773023e-04   2.2350867e-05   2.8718770e-04   2.9441520e-04   4.5852355e-05   4.1368094e-07   1.8447798e-05  -1.2726142e-04   5.2191607e-04   2.5688018e-04   1.1104333e-05   3.1687994e-04  -2.6782365e-05   3.2788752e-04   1.9192648e-04   9.6179193e-05   4.0996675e-05  -7.8549527e-05  -2.3051596e-05  -1.3711480e-05   9.8787584e-06  -2.0227266e-04  -4.6054859e-05  -1.8097388e-05   2.0180737e-05   5.7250309e-05   2.3144018e-05  -2.3694242e-04  -1.4620885e-04   1.3148646e-04   1.5290186e-04   1.5652525e-04   9.6022573e-05   2.3708903e-04   1.6543513e-04   4.8678308e-04   0.0000000e+00   3.0973340e-04   3.2777309e-05   1.7997806e-05   6.0641377e-04   2.6791886e-04   1.2020392e-04  -1.6966843e-05  -1.5452397e-05   1.9598540e-04   5.5225677e-04   4.8059277e-04   3.0488993e-05   2.1984585e-05   1.4089590e-04  -4.1938479e-05   4.6676179e-05
   2.5598288e-06   4.7580485e-05   1.1440305e-04   1.8574122e-04   8.2595954e-05   9.2653467e-05   1.7639587e-04   9.0151581e-06   9.1539975e-05   8.7474286e-05   8.8238159e-05   2.0464559e-04   9.0424429e-05   5.1469331e-05   3.6973859e-05  -5.2129326e-05  -8.6740875e-05   4.2087903e-05   2.0881133e-04   2.1056485e-04   1.0551084e-04   0.0000000e+00   3.5136099e-05   7.5669514e-05   3.4279228e-05   1.3525240e-04   1.5948123e-04   4.7081976e-05   7.6806034e-06   5.3572046e-05   8.6386446e-05   1.1559301e-04   1.2419741e-04   3.7317179e-05   5.6061475e-05   9.5042091e-06   1.3241891e-04   8.8503156e-05  -8.1754039e-06  -6.9245500e-05  -1.1808479e-04   1.8118394e-04  -5.3290046e-05   1.6063557e-05  -4.1300727e-04  -3.3362345e-04  -9.8544384e-05  -1.1372362e-04  -7.5372659e-05   3.8562972e-05  -2.0642796e-04   6.8074359e-05   2.6427205e-05  -1.6817354e-04  -2.2009602e-04  -1.2768629e-04  -7.0256642e-05  -2.2042401e-04  -2.3191311e-04   0.0000000e+00  -1.4904821e-04  -1.4291390e-04   8.9526559e-06  -2.2599821e-04  -1.8711473e-04   2.6870231e-05   5.2304282e-05   1.0184003e-04   1.1836385e-04  -1.3314802e-04  -2.2283135e-04  -3.8677344e-05   1.4245748e-04   1.0085182e-05   7.8770074e-05  -7.9000595e-05   1.0330375e-04  -6.0121588e-05  -1.8540166e-04  -6.1360610e-05  -4.3871458e-05  -1.1805274e-04  -2.1176430e-04  -2.9857887e-04  -1.8173796e-04  -1.6634089e-04  -4.9472901e-04  -2.8705891e-04  -4.1864482e-04  -3.1816459e-04  -1.3357999e-04  -2.7227271e-04  -5.3040228e-04  -3.7343739e-04  -2.0758331e-04  -5.0753393e-04  -7.5243962e-04   0.0000000e+00  -5.0733424e-04  -3.4906841e-05   8.7937497e-06  -9.0746036e-04  -6.2789215e-04  -3.3654235e-04  -1.0215131e-04   1.4892209e-05   5.0673164e-07  -5.1727469e-04  -4.3677380e-04  -3.1355479e-04  -1.6943156e-04   9.1632423e-05  -1.1199674e-04  -1.0298048e-04  -1.8893891e-05  -3.5458211e-05  -2.2202558e-05   1.1340954e-04  -6.0354573e-05   6.0822373e-06   1.8392554e-04   4.3177979e-05   4.3187522e-05  -6.5801979e-05  -3.9618798e-05   1.8559030e-05   1.2961834e-04   4.9552541e-05  -1.1503637e-05  -7.6572018e-05  -5.1026073e-05  -2.6431986e-06  -5.4990036e-06  -6.9297403e-06   4.1277738e-05   0.0000000e+00   2.1007972e-05  -4.3107010e-05  -7.9899500e-05   7.1743543e-05   1.0932375e-05  -8.7470566e-05  -4.5125897e-05  -1.1598528e-05   2.6991733e-05   6.7539929e-05   1.3718513e-05   2.0973734e-05  -5.5581420e-05   3.1129866e-05   7.9243979e-05   3.4235174e-06   2.5734628e-06   1.4121394e-04  -1.8564255e-04  -6.4420871e-05   9.1120885e-06   2.7234649e-04   1.7837628e-05   1.9724321e-06  -1.1726854e-04  -9.3066934e-05   1.5032052e-04   4.9513256e-04   1.1708528e-04  -1.3292593e-06   3.2591430e-05  -1.6532378e-05   4.0417711e-05   2.9624263e-04   6.2895744e-04   4.4307803e-04   5.2920508e-04   0.0000000e+00   1.4874652e-04   2.4938778e-04   3.7800536e-05   4.3263622e-04   5.7884359e-04   8.2789487e-05   1.3238704e-06   4.3082570e-06  -2.6558648e-04   6.5978992e-04   5.0688052e-04   7.7199101e-05   3.1694766e-04   1.1503610e-04  -1.1858258e-04  -1.5802071e-04   1.3365104e-05  -2.8867399e-05  -8.8260743e-05   4.2089653e-05  -2.8089130e-05   3.2770618e-05  -4.8788856e-05  -4.3585294e-05  -8.3946442e-05  -7.3995383e-05  -4.9242832e-05   3.4690554e-05  -3.4924980e-05  -4.3225909e-05  -9.6574050e-05  -9.4885940e-05  -2.4089323e-05  -6.7838163e-05  -8.2399897e-06  -3.4733621e-06   2.8350502e-05   0.0000000e+00   3.9542944e-06  -9.1646724e-07  -3.2219514e-05   2.4360578e-05  -6.5994265e-05  -1.6853793e-05   3.5520999e-06  -4.4290203e-05  -3.0030735e-05   3.1408283e-05  -4.2952992e-05  -4.0588519e-05   5.2498646e-05  -4.7586160e-05  -1.4500741e-04  -2.1950787e-05   2.1967031e-04   2.0977986e-04   8.1790453e-05   1.1890916e-04   1.6962587e-04   1.2510211e-04  -1.0083534e-05   1.2550603e-04  -4.1143325e-05   2.5168517e-04   3.3923903e-04   2.6781555e-04   2.8057910e-04   1.4709482e-04  -1.4306208e-07   1.9517408e-04   2.4943941e-04   1.9421133e-04   1.0769036e-04   1.3610437e-04   2.1792086e-04   0.0000000e+00   1.7428867e-04   2.1893126e-04   1.9146592e-04   1.0159338e-04   1.7182171e-04   1.4768516e-04   9.6623045e-05   1.2631928e-04   1.6229897e-04   1.2123407e-04   1.1397085e-04   4.9390375e-05   2.1169296e-04   2.0879330e-04  -7.2829677e-05   8.6376823e-05   7.9878126e-05   2.0623538e-04  -3.2463661e-05  -1.5015260e-04   5.1302295e-05   7.2966702e-05   5.6966026e-05   3.8708532e-05   1.0249303e-04   8.2333730e-05   2.3666346e-04   1.1293730e-04  -3.8489170e-05   5.1721784e-05   1.0123104e-04   1.6905952e-04   9.9637449e-05   2.1661630e-04   2.7754575e-04   2.6151870e-04   3.7511447e-04   0.0000000e+00   3.0004958e-04   2.7179738e-04   8.9362771e-05   2.6552365e-04   2.8042179e-04   2.4682570e-04   8.6532937e-05  -2.1908742e-05   2.1473431e-05   3.7610040e-04   4.4324442e-04   1.5120998e-04   1.8675962e-04   1.2053148e-04   1.2048227e-04   7.0083023e-05  -9.1657266e-05  -4.2064004e-05  -5.8931933e-04  -4.9484878e-06   6.9709422e-05   4.4628365e-05  -1.0640653e-03  -1.6653263e-03  -4.9783724e-04  -1.9205562e-04   1.5128971e-04   1.6534743e-04  -1.1934049e-03  -5.5158185e-04  -6.5919262e-04  -5.6135436e-04   6.2694421e-05   3.8641643e-04   3.7699835e-04   1.3321797e-04  -2.5935819e-04   0.0000000e+00  -1.4885612e-04   3.7067997e-05  -7.1228055e-05   1.4003851e-05   5.3531507e-04   9.7924839e-05  -5.7961709e-05  -2.1889556e-04  -3.1753244e-04  -1.1985480e-04   4.7936374e-04   1.6637701e-04   3.0133478e-05  -2.1876246e-04  -5.8555522e-04  -7.1942500e-04  -3.0037136e-05   2.8128120e-04   7.7718047e-05   3.5642291e-04  -1.1217558e-05   2.1125060e-04   8.9209846e-04   3.9064815e-04   6.1660556e-04  -1.3845992e-04  -5.1477691e-05   4.1212793e-04   5.3342736e-04   5.3094097e-04   4.8704111e-04   1.8526567e-04  -2.3866945e-04   1.6654430e-04   5.7885439e-04   3.2361591e-04   3.3511202e-04   0.0000000e+00  -1.3899704e-05   5.6038577e-04   3.3632262e-05   3.0874660e-04   3.2824747e-04   5.2371954e-05   7.3533675e-06   2.0363993e-05  -1.4451303e-04   5.5634767e-04   2.8001711e-04   2.3215992e-05   3.4600982e-04  -1.1247269e-05   3.1924155e-04   1.9813748e-04   1.1398182e-04   4.6591130e-05  -8.7151950e-05  -2.3008958e-05  -1.5215748e-05   1.9042827e-05  -2.1303050e-04  -4.4429527e-05  -1.7780418e-05   1.4017676e-05   5.8451599e-05   3.3739064e-05  -2.3966531e-04  -1.3921453e-04   1.4196945e-04   1.6979558e-04   1.6944105e-04   8.2005878e-05   2.6918014e-04   1.7896643e-04   5.3941417e-04   0.0000000e+00   3.2937404e-04   1.7035745e-05   1.8075092e-05   6.3253896e-04   2.6939968e-04   1.1780139e-04  -1.1697217e-05  -1.4319863e-05   2.2762426e-04   5.9815791e-04   5.1569915e-04   2.4019855e-05   3.9424947e-05   1.5721562e-04  -4.9739382e-05   4.8639916e-05
   3.9751468e-06   5.4601091e-05   1.1615176e-04   1.9555894e-04   8.7779934e-05   1.0433644e-04   1.8786988e-04   1.3785105e-05   9.9749593e-05   9.1549596e-05   1.0253339e-04   2.3104016e-04   9.4445846e-05   5.4728951e-05   3.8299650e-05  -4.8837093e-05  -8.6846404e-05   5.9551964e-05   2.4168416e-04   2.4144607e-04   1.3280205e-04   0.0000000e+00   5.1323864e-05   8.3503647e-05   3.4418784e-05   1.6603609e-04   1.8776625e-04   5.2965918e-05   7.1364057e-06   5.1350991e-05   8.8359345e-05   1.4267845e-04   1.5628617e-04   4.5638626e-05   6.5586693e-05   1.0506589e-05   1.3920848e-04   9.3979870e-05   2.0597037e-05  -3.2890804e-05  -1.1320119e-04   2.2302333e-04  -3.4340301e-05   3.5508339e-05  -4.4827068e-04  -3.6853848e-04  -9.8609930e-05  -8.5969912e-05  -3.4753032e-05   8.0948351e-05  -2.1266478e-04   7.4975415e-05   1.3638211e-05  -1.7416570e-04  -2.1531838e-04  -1.2946656e-04  -6.5284043e-05  -2.0590155e-04  -2.3028567e-04   0.0000000e+00  -1.3760601e-04  -1.0726093e-04   5.6305499e-05  -2.2931950e-04  -2.1726259e-04   4.9259361e-05   8.7515768e-05   1.2751664e-04   1.7119349e-04  -1.2907273e-04  -2.2977523e-04  -3.9024310e-05   1.7223273e-04   3.4655946e-05   8.6442564e-05  -6.6302693e-05   1.3621899e-04  -6.2088264e-05  -1.7989576e-04  -5.1237570e-05  -4.1803209e-05  -1.2644413e-04  -2.1128481e-04  -3.0561492e-04  -1.8481674e-04  -1.7624331e-04  -4.9971015e-04  -3.0100075e-04  -4.3125099e-04  -3.3887037e-04  -1.4524984e-04  -2.8380088e-04  -5.6108936e-04  -3.8028130e-04  -2.3044313e-04  -5.3761377e-04  -7.6415339e-04   0.0000000e+00  -5.2594247e-04  -3.8225922e-05   1.5234868e-05  -9.2208297e-04  -6.6064290e-04  -3.3453820e-04  -9.6044448e-05   3.2328321e-05  -7.1037163e-06  -5.2311505e-04  -4.6197531e-04  -3.2053999e-04  -1.6253039e-04   1.0162077e-04  -1.1951189e-04  -9.6339570e-05  -1.4481214e-05  -1.4647117e-05  -1.9217178e-05   1.2194754e-04  -6.5569598e-05   1.3813060e-05   1.8944239e-04   5.3006749e-05   4.0014624e-05  -5.4702911e-05  -2.5248955e-05   2.6828537e-05   1.4328997e-04   5.4050358e-05  -2.0508241e-05  -7.6558888e-05  -3.7199137e-05  -6.0142433e-06  -1.5487952e-05  -5.8366265e-06   3.3908584e-05   0.0000000e+00   2.0747542e-05  -3.5483982e-05  -7.5272138e-05   7.6084370e-05   1.5808180e-05  -7.7667731e-05  -4.1458094e-05  -7.1541759e-06   1.7769821e-05   5.9892203e-05   5.5130743e-06   2.4919144e-05  -4.7556734e-05   4.1588467e-05   9.1536218e-05   7.9450761e-07   1.8600535e-06   1.7717004e-04  -2.0454306e-04  -9.7186926e-05   1.1216408e-05   2.8119506e-04  -2.0346952e-06   5.4443359e-06  -1.3777042e-04  -1.0312193e-04   1.6574505e-04   5.1093546e-04   1.1013336e-04  -1.3324291e-05   2.3144866e-05  -2.1358453e-05   5.6182558e-05   3.1751259e-04   6.5118880e-04   4.5280387e-04   5.2601925e-04   0.0000000e+00   1.4353958e-04   2.7557808e-04   5.5937999e-05   4.2485672e-04   5.9543712e-04   8.2631440e-05   9.1945982e-06   5.1855170e-06  -2.6539027e-04   6.5648075e-04   5.1326007e-04   8.4999232e-05   3.2497173e-04   1.1885911e-04  -1.2761152e-04  -1.6713404e-04   1.1693382e-05  -2.5335415e-05  -9.2826560e-05   3.4824297e-05  -3.5780834e-05   3.2409483e-05  -5.6185723e-05  -3.5987600e-05  -8.8720277e-05  -7.0285265e-05  -4.3013571e-05   3.0230279e-05  -3.2104112e-05  -4.4240918e-05  -1.0271006e-04  -8.6805059e-05  -6.3293368e-06  -7.3609913e-05  -2.6772552e-05  -1.1398421e-05   2.6317197e-05   0.0000000e+00   4.4398188e-06   8.5523838e-06  -2.4021723e-05   1.9437653e-05  -7.0485174e-05  -1.1578260e-05   7.1801795e-06  -4.5033636e-05  -4.3681507e-05   2.4062879e-05  -4.8815928e-05  -3.5070480e-05   5.5100028e-05  -3.8404515e-05  -1.6462919e-04  -2.7494905e-05   2.0403258e-04   2.1364343e-04   8.1147138e-05   9.7050203e-05   1.6316067e-04   1.3204791e-04  -2.2569026e-06   1.2087961e-04  -2.6814549e-05   2.5879284e-04   3.6762752e-04   3.0305338e-04   2.8817604e-04   1.4257499e-04   8.9027140e-06   2.0260088e-04   2.5221151e-04   1.8686075e-04   1.0831473e-04   1.4187696e-04   2.0844394e-04   0.0000000e+00   1.8001073e-04   2.2105658e-04   1.8755312e-04   8.3536827e-05   1.5012861e-04   1.5106742e-04   9.3546574e-05   1.1826972e-04   1.3898087e-04   9.5443113e-05   9.5467642e-05   3.6670422e-05   2.0978611e-04   2.0541015e-04  -7.0435168e-05   8.1871946e-05   9.3249287e-05   2.0740489e-04  -5.9515488e-05  -1.7029497e-04   4.0070701e-05   5.8824416e-05   2.4982552e-05   4.3003808e-05   6.6661102e-05   7.9825935e-05   2.1979971e-04   7.4815147e-05  -3.5300627e-05   4.9855986e-05   7.8438307e-05   1.6465384e-04   1.1125440e-04   1.8850735e-04   2.1802949e-04   2.2183394e-04   3.7273980e-04   0.0000000e+00   3.0763437e-04   2.7824603e-04   8.7468576e-05   2.2172047e-04   2.2793906e-04   2.3760224e-04   9.2368170e-05  -2.8659478e-05   6.8029479e-06   3.7103276e-04   4.0581311e-04   1.4028621e-04   1.8967238e-04   1.3562080e-04   7.1712005e-05   6.7661157e-05  -1.1132852e-04  -7.5498048e-05  -6.7103881e-04  -7.8146369e-05   3.2039244e-05   9.1633980e-06  -1.1894924e-03  -1.8041081e-03  -5.5207886e-04  -2.7866639e-04   4.0362428e-05   8.2965310e-05  -1.2631728e-03  -6.0921325e-04  -7.4381608e-04  -6.1649419e-04   4.1050587e-05   3.4764748e-04   3.4400951e-04   7.9566516e-05  -3.1916686e-04   0.0000000e+00  -2.0222869e-04   8.0320363e-06  -7.7858577e-05  -1.1344450e-05   5.3916694e-04   1.0561663e-04  -6.8913684e-05  -2.4920493e-04  -3.5616421e-04  -1.7677022e-04   4.4195467e-04   1.3453760e-04  -5.1534468e-06  -2.6133426e-04  -6.9007115e-04  -7.7450394e-04  -4.0101168e-05   2.5945801e-04   9.4597682e-05   3.5511995e-04  -7.5042774e-06   2.3606115e-04   9.3090409e-04   4.5184473e-04   6.4400411e-04  -1.2625917e-04  -1.3017730e-05   4.5397577e-04   5.6163520e-04   5.7395653e-04   5.1031185e-04   2.1643700e-04  -2.0728857e-04   1.7778762e-04   6.0152046e-04   3.5299697e-04   3.5786069e-04   0.0000000e+00  -5.3997592e-06   5.5435960e-04   4.5233925e-05   3.2110889e-04   3.4703239e-04   5.5978704e-05   1.6276993e-05   2.2674949e-05  -1.5233217e-04   5.7285556e-04   2.9672676e-04   3.6248098e-05   3.6307333e-04   6.5401323e-06   3.0769318e-04   2.0277125e-04   1.3288369e-04   5.0590870e-05  -9.3903013e-05  -1.8604778e-05  -1.5762990e-05   2.9701883e-05  -2.2231358e-04  -4.6355298e-05  -2.0482389e-05   8.4130707e-06   6.2213691e-05   4.8343774e-05  -2.3915309e-04  -1.3225989e-04   1.4798681e-04   1.8316274e-04   1.8167333e-04   6.7197136e-05   3.0156243e-04   1.9212735e-04   5.8437186e-04   0.0000000e+00   3.4270316e-04  -1.3182362e-06   1.6994084e-05   6.4494836e-04   2.6532597e-04   1.1178619e-04  -5.6529331e-06  -1.2668501e-05   2.6310185e-04   6.3304061e-04   5.4094923e-04   1.7237360e-05   5.6649495e-05   1.7064186e-04  -5.7614952e-05   4.8698866e-05
   4.6355314e-06   6.0646316e-05   1.1533365e-04   2.0141179e-04   9.1446773e-05   1.1466328e-04   1.9605130e-04   1.8483732e-05   1.0600950e-04   9.3723362e-05   1.1541079e-04   2.5481371e-04   9.6578991e-05   5.6999814e-05   3.8733807e-05  -4.4410300e-05  -8.5335767e-05   7.7266904e-05   2.7248364e-04   2.6975237e-04   1.5955501e-04   0.0000000e+00   6.7684594e-05   8.9714222e-05   3.3398216e-05   1.9590110e-04   2.1443431e-04   5.7887682e-05   5.9710175e-06   4.7509680e-05   8.8011504e-05   1.6915077e-04   1.8785253e-04   5.3454575e-05   7.4004015e-05   1.0935224e-05   1.4257906e-04   9.7295486e-05   5.1249385e-05   2.6940654e-06  -1.0827133e-04   2.6367914e-04  -1.3119674e-05   5.6628727e-05  -4.8407730e-04  -4.0492963e-04  -1.0143183e-04  -5.4439191e-05   8.1525084e-06   1.2375820e-04  -2.1737239e-04   8.0095274e-05  -1.3842716e-06  -1.7806255e-04  -2.0484701e-04  -1.2932310e-04  -6.1771075e-05  -1.8522516e-04  -2.2172205e-04   0.0000000e+00  -1.2092117e-04  -6.9301848e-05   1.0513530e-04  -2.2470004e-04  -2.4062380e-04   7.2936121e-05   1.2254357e-04   1.5205566e-04   2.2151543e-04  -1.2096918e-04  -2.3330584e-04  -3.7581669e-05   2.0041761e-04   6.0755622e-05   8.9558916e-05  -5.2011050e-05   1.6975396e-04  -5.9101688e-05  -1.6865428e-04  -3.8361701e-05  -3.8042078e-05  -1.2985720e-04  -2.0594961e-04  -3.0513910e-04  -1.8387465e-04  -1.8062283e-04  -4.8643621e-04  -3.0313917e-04  -4.3334023e-04  -3.5303832e-04  -1.5416900e-04  -2.8629140e-04  -5.7586860e-04  -3.7327798e-04  -2.4257713e-04  -5.5250608e-04  -7.5773495e-04   0.0000000e+00  -5.3326426e-04  -4.0034630e-05   2.1845498e-05  -9.1464994e-04  -6.7466836e-04  -3.2282938e-04  -8.7679040e-05   4.9996178e-05  -1.6170695e-05  -5.1544635e-04  -4.7367569e-04  -3.1795363e-04  -1.5096735e-04   1.1000294e-04  -1.2623438e-04  -8.9597478e-05  -1.0016595e-05   6.2392040e-06  -1.5431710e-05   1.2600914e-04  -6.9571378e-05   2.0342493e-05   1.9517870e-04   6.5827255e-05   3.7044268e-05  -4.2428239e-05  -1.0363035e-05   3.3345006e-05   1.5701623e-04   5.9854905e-05  -2.8412213e-05  -7.3732203e-05  -2.1631486e-05  -9.7553138e-06  -2.7109500e-05  -5.6917076e-06   2.5638130e-05   0.0000000e+00   2.0605160e-05  -3.0654401e-05  -7.0035173e-05   7.8169861e-05   1.8691304e-05  -6.7084261e-05  -3.7990899e-05  -3.1873156e-06   7.1860046e-06   4.9969228e-05  -4.4861174e-06   2.7757268e-05  -4.0496638e-05   5.0420057e-05   1.0697018e-04  -1.4985485e-06   1.2457855e-06   2.1806139e-04  -2.2047603e-04  -1.2860333e-04   1.3370861e-05   2.8404264e-04  -2.2897313e-05   6.6155082e-06  -1.5541612e-04  -1.1153480e-04   1.7688767e-04   5.1558165e-04   1.0026436e-04  -2.5621717e-05   1.4569537e-05  -2.4958368e-05   7.0061183e-05   3.3379093e-04   6.6193127e-04   4.5401311e-04   5.1113914e-04   0.0000000e+00   1.3533703e-04   3.0328672e-04   7.5405163e-05   4.0959271e-04   6.0118407e-04   8.1938909e-05   1.7907864e-05   6.3016870e-06  -2.5899406e-04   6.3937234e-04   5.1067853e-04   9.1428451e-05   3.2769345e-04   1.1928420e-04  -1.3179983e-04  -1.7412861e-04   8.9208666e-06  -2.0665203e-05  -9.5828596e-05   2.7597731e-05  -4.2680008e-05   3.1963091e-05  -6.2497697e-05  -2.6800564e-05  -9.2107142e-05  -6.4568158e-05  -3.5113913e-05   2.6140005e-05  -2.8005562e-05  -4.5128747e-05  -1.0697483e-04  -7.6280581e-05   1.2617613e-05  -7.6640095e-05  -4.4057303e-05  -1.8273574e-05   2.4092235e-05   0.0000000e+00   4.7756184e-06   1.8508923e-05  -1.5168350e-05   1.4582823e-05  -7.1363188e-05  -5.1482414e-06   1.0826209e-05  -4.4937674e-05  -5.7589308e-05   1.6756319e-05  -5.2268841e-05  -2.8286489e-05   5.7259607e-05  -2.8054421e-05  -1.8394779e-04  -3.3765346e-05   1.8443766e-04   2.1488673e-04   7.9802944e-05   7.3958387e-05   1.5191306e-04   1.3578883e-04   1.3433904e-05   1.1835173e-04  -5.6552603e-06   2.5980401e-04   3.8858884e-04   3.2986866e-04   2.9354008e-04   1.3778211e-04   2.2394138e-05   2.0638278e-04   2.4711634e-04   1.7358073e-04   1.0654212e-04   1.4327361e-04   1.9223907e-04   0.0000000e+00   1.8119250e-04   2.1965836e-04   1.7925231e-04   6.0765932e-05   1.2212218e-04   1.5031586e-04   8.9177594e-05   1.0837421e-04   1.1164438e-04   6.4848358e-05   7.2202956e-05   2.2174251e-05   2.0284428e-04   1.9679800e-04  -5.8836797e-05   7.9968688e-05   1.0933647e-04   2.0979968e-04  -8.5450597e-05  -1.8616972e-04   2.8912557e-05   4.3924215e-05  -9.6159302e-06   4.6885276e-05   2.7204627e-05   7.7538106e-05   2.0023991e-04   3.4031012e-05  -3.0475828e-05   4.7396603e-05   5.2258347e-05   1.5785802e-04   1.2323608e-04   1.5616506e-04   1.5041427e-04   1.7559301e-04   3.6073949e-04   0.0000000e+00   3.0919455e-04   2.8601327e-04   8.7480580e-05   1.7201790e-04   1.6883907e-04   2.2604339e-04   9.9024693e-05  -3.3597388e-05  -8.8033303e-06   3.5606701e-04   3.5722261e-04   1.2709664e-04   1.9316828e-04   1.5109319e-04   1.7665941e-05   6.4508545e-05  -1.2332587e-04  -1.0261973e-04  -7.5009178e-04  -1.5216719e-04  -1.6190079e-05  -3.2904850e-05  -1.3195356e-03  -1.9396224e-03  -6.0485994e-04  -3.6589808e-04  -8.4601572e-05  -2.0910743e-05  -1.3279484e-03  -6.6719681e-04  -8.2694279e-04  -6.6577816e-04   1.9989803e-05   2.9118788e-04   2.8408030e-04   1.1688351e-05  -3.7730225e-04   0.0000000e+00  -2.5555015e-04  -1.9675625e-05  -8.1589193e-05  -4.3020251e-05   5.2448885e-04   1.1177187e-04  -7.7536073e-05  -2.7539871e-04  -3.9018100e-04  -2.3871991e-04   3.8226760e-04   9.6610764e-05  -4.1219350e-05  -3.0027917e-04  -7.9197495e-04  -8.2476474e-04  -4.6619233e-05   2.2546102e-04   1.1468078e-04   3.4505650e-04  -1.5460617e-06   2.5260654e-04   9.5959509e-04   5.1397647e-04   6.6656739e-04  -1.0834723e-04   2.9012127e-05   4.8200505e-04   5.8528144e-04   6.1371969e-04   5.3055941e-04   2.5102106e-04  -1.6942865e-04   1.8680928e-04   6.0595871e-04   3.7308107e-04   3.7159474e-04   0.0000000e+00   6.5402175e-06   5.3111670e-04   5.6596498e-05   3.2338032e-04   3.4825273e-04   5.6110857e-05   2.7374153e-05   2.5632208e-05  -1.4832255e-04   5.6980101e-04   3.0663255e-04   4.9934463e-05   3.6673510e-04   2.6118609e-05   2.9518112e-04   2.0658619e-04   1.5248802e-04   5.3024357e-05  -9.8711737e-05  -9.7007808e-06  -1.5321103e-05   4.1434725e-05  -2.3013686e-04  -5.2493980e-05  -2.6181384e-05   3.4597445e-06   6.8751059e-05   6.6694932e-05  -2.3605380e-04  -1.2637687e-04   1.4943898e-04   1.9211827e-04   1.9256752e-04   5.2823685e-05   3.3365531e-04   2.0472029e-04   6.1971694e-04   0.0000000e+00   3.4917386e-04  -2.1013977e-05   1.4886898e-05   6.4284799e-04   2.5608484e-04   1.0222520e-04   9.1249816e-07  -1.0506131e-05   3.0181468e-04   6.5566419e-04   5.5548112e-04   1.0518428e-05   7.2812994e-05   1.8079677e-04  -6.4751022e-05   4.7316492e-05
   4.3842338e-06   6.5473791e-05   1.1195226e-04   2.0323795e-04   9.3440029e-05   1.2331508e-04   2.0066485e-04   2.2808628e-05   1.1004303e-04   9.3887147e-05   1.2636434e-04   2.7521625e-04   9.6708894e-05   5.8143924e-05   3.8247465e-05  -3.9092259e-05  -8.2331768e-05   9.4604449e-05   3.0022095e-04   2.9457295e-04   1.8491214e-04   0.0000000e+00   8.3672706e-05   9.4124061e-05   3.1197060e-05   2.2388770e-04   2.3863243e-04   6.1691571e-05   4.1667992e-06   4.2182374e-05   8.5218691e-05   1.9418751e-04   2.1784687e-04   6.0475803e-05   8.0991137e-05   1.0749461e-05   1.4239088e-04   9.8189291e-05   8.2474965e-05   3.4227886e-05  -1.0397920e-04   2.9906887e-04   8.9593000e-06   7.7713746e-05  -5.2117205e-04  -4.4224505e-04  -1.0804920e-04  -2.0283718e-05   5.0779962e-05   1.6293303e-04  -2.2119832e-04   8.2758559e-05  -1.8836262e-05  -1.7963544e-04  -1.8854731e-04  -1.2778926e-04  -6.2031941e-05  -1.6071161e-04  -2.0680088e-04   0.0000000e+00  -9.9625772e-05  -3.2310013e-05   1.5268093e-04  -2.1249422e-04  -2.5655603e-04   9.6649218e-05   1.5569120e-04   1.7431989e-04   2.6640043e-04  -1.0961452e-04  -2.3347952e-04  -3.4277440e-05   2.2489845e-04   8.7644305e-05   8.6444271e-05  -3.6993975e-05   2.0163427e-04  -5.1284195e-05  -1.5247307e-04  -2.3674875e-05  -3.2984938e-05  -1.2811928e-04  -1.9642474e-04  -2.9758101e-04  -1.7924196e-04  -1.7947991e-04  -4.5560618e-04  -2.9325219e-04  -4.2532257e-04  -3.6053156e-04  -1.5999759e-04  -2.7929709e-04  -5.7410712e-04  -3.5252530e-04  -2.4292891e-04  -5.5137574e-04  -7.3332693e-04   0.0000000e+00  -5.2912534e-04  -4.0344688e-05   2.8196474e-05  -8.8540499e-04  -6.6903953e-04  -3.0204593e-04  -7.7811706e-05   6.6966483e-05  -2.6670454e-05  -4.9439497e-04  -4.7086866e-04  -3.0597329e-04  -1.3569240e-04   1.1642790e-04  -1.3239611e-04  -8.4237601e-05  -6.0640999e-06   2.5826512e-05  -1.1301767e-05   1.2511272e-04  -7.2468427e-05   2.4940336e-05   2.0154452e-04   8.1435492e-05   3.4478597e-05  -3.0058070e-05   3.6953153e-06   3.7163571e-05   1.7044111e-04   6.7017321e-05  -3.4737487e-05  -6.8525971e-05  -5.4775919e-06  -1.4126456e-05  -4.0493893e-05  -7.1074958e-06   1.6530023e-05   0.0000000e+00   2.0432621e-05  -2.9344024e-05  -6.4878323e-05   7.7396600e-05   1.8644659e-05  -5.6792124e-05  -3.5289964e-05  -1.4872741e-07  -4.3579137e-06   3.7846674e-05  -1.6539720e-05   2.9036309e-05  -3.5446776e-05   5.6821930e-05   1.2551142e-04  -3.4054499e-06   3.4438207e-07   2.6348647e-04  -2.3331937e-04  -1.5741683e-04   1.5302157e-05   2.8126331e-04  -4.3918236e-05   4.9069692e-06  -1.6945511e-04  -1.1843853e-04   1.8273243e-04   5.0965202e-04   8.7926455e-05  -3.7775720e-05   7.4633005e-06  -2.7348442e-05   8.0968747e-05   3.4449354e-04   6.6201244e-04   4.4734054e-04   4.8595012e-04   0.0000000e+00   1.2449107e-04   3.3224090e-04   9.5597941e-05   3.8862746e-04   5.9758247e-04   8.1089907e-05   2.6954356e-05   7.4734281e-06  -2.4787527e-04   6.1068198e-04   4.9997326e-04   9.6073205e-05   3.2579811e-04   1.1613503e-04  -1.3149808e-04  -1.7930767e-04   5.2499149e-06  -1.5216402e-05  -9.7272380e-05   2.0876002e-05  -4.8410380e-05   3.1468185e-05  -6.7413130e-05  -1.6336831e-05  -9.4139489e-05  -5.7235919e-05  -2.6144311e-05   2.2536172e-05  -2.2725473e-05  -4.5967893e-05  -1.0928385e-04  -6.3844076e-05   3.1896855e-05  -7.6834709e-05  -5.9480279e-05  -2.3893593e-05   2.1712994e-05   0.0000000e+00   4.8383118e-06   2.8193215e-05  -6.2120858e-06   9.9798107e-06  -6.8611394e-05   2.0848554e-06   1.4322692e-05  -4.4084001e-05  -7.1098895e-05   9.7309204e-06  -5.3260601e-05  -2.0647590e-05   5.8899274e-05  -1.7151940e-05  -2.0252542e-04  -4.0499983e-05   1.6216255e-04   2.1393361e-04   7.7861136e-05   5.0660014e-05   1.3622300e-04   1.3602132e-04   3.7358999e-05   1.1939246e-04   2.1502598e-05   2.5460819e-04   4.0093876e-04   3.4642939e-04   2.9780243e-04   1.3373498e-04   3.9868564e-05   2.0631013e-04   2.3423913e-04   1.5459367e-04   1.0206756e-04   1.3983466e-04   1.6986779e-04   0.0000000e+00   1.7760602e-04   2.1504709e-04   1.6706904e-04   3.3753772e-05   8.8617287e-05   1.4532237e-04   8.3734013e-05   9.7107746e-05   8.1186137e-05   3.0609535e-05   4.4783525e-05   6.4381414e-06   1.9113407e-04   1.8346281e-04  -3.8091410e-05   8.1323477e-05   1.2752953e-04   2.1345807e-04  -1.0908295e-04  -1.9792606e-04   1.8639482e-05   2.8886828e-05  -4.5117055e-05   5.0399363e-05  -1.3866236e-05   7.5813280e-05   1.7944531e-04  -7.7968346e-06  -2.4263975e-05   4.4734467e-05   2.4158000e-05   1.4950796e-04   1.3549234e-04   1.2143073e-04   7.7927021e-05   1.2493009e-04   3.3949752e-04   0.0000000e+00   3.0487394e-04   2.9529392e-04   8.9940260e-05   1.1897281e-04   1.0597495e-04   2.1330287e-04   1.0649487e-04  -3.6343269e-05  -2.4441660e-05   3.3173034e-04   3.0000905e-04   1.1245087e-04   1.9741011e-04   1.6646509e-04  -3.8676279e-05   6.1029580e-05  -1.2636290e-04  -1.2061434e-04  -8.2359462e-04  -2.2285548e-04  -7.3838001e-05  -8.0257883e-05  -1.4514278e-03  -2.0708865e-03  -6.5390572e-04  -4.4986216e-04  -2.1824565e-04  -1.4352792e-04  -1.3883476e-03  -7.2517165e-04  -9.0647058e-04  -7.0761812e-04   1.0467314e-06   2.1886673e-04   1.9730042e-04  -6.8504926e-05  -4.3189791e-04   0.0000000e+00  -3.0686897e-04  -4.3881776e-05  -8.2070920e-05  -8.0502711e-05   4.9115496e-04   1.1653083e-04  -8.3536118e-05  -2.9633290e-04  -4.1910015e-04  -3.0419660e-04   3.0161647e-04   5.4392464e-05  -7.5924911e-05  -3.3397835e-04  -8.8666508e-04  -8.6932020e-04  -4.8194898e-05   1.8100771e-04   1.3817266e-04   3.2795244e-04   6.7297106e-06   2.5960485e-04   9.7906888e-04   5.7524550e-04   6.8568140e-04  -8.5089624e-05   7.3052541e-05   4.9448477e-04   6.0437756e-04   6.5024409e-04   5.4881541e-04   2.8908424e-04  -1.2712600e-04   1.9373604e-04   5.9225643e-04   3.8285234e-04   3.7562536e-04   0.0000000e+00   2.2064010e-05   4.9344889e-04   6.7140126e-05   3.1557022e-04   3.3136377e-04   5.2470438e-05   4.0753892e-05   2.9476318e-05  -1.3065491e-04   5.4721883e-04   3.0996059e-04   6.4027796e-05   3.5668908e-04   4.6958022e-05   2.8350602e-04   2.1038410e-04   1.7236288e-04   5.4047506e-05  -1.0161422e-04   3.4754582e-06  -1.3916520e-05   5.3736397e-05  -2.3656761e-04  -6.3153782e-05  -3.4544654e-05  -8.4351054e-07   7.8055750e-05   8.8259430e-05  -2.3109019e-04  -1.2241752e-04   1.4654846e-04   1.9598760e-04   2.0139353e-04   4.0105209e-05   3.6490517e-04   2.1652668e-04   6.4391296e-04   0.0000000e+00   3.4855522e-04  -4.0639388e-05   1.2038674e-05   6.2613167e-04   2.4236488e-04   8.9353385e-05   7.7787393e-06  -7.8611808e-06   3.4289343e-04   6.6544493e-04   5.5906342e-04   4.2669836e-06   8.7220362e-05   1.8755055e-04  -7.0282816e-05   4.5141621e-05
   3.1282097e-06   6.8930134e-05   1.0610404e-04   2.0119648e-04   9.3658603e-05   1.3004923e-04   2.0156432e-04   2.6454866e-05   1.1167676e-04   9.2011094e-05   1.3497893e-04   2.9163550e-04   9.4793147e-05   5.8056197e-05   3.6853784e-05  -3.3160889e-05  -7.8009905e-05   1.1095143e-04   3.2401166e-04   3.1513628e-04   2.0807712e-04   0.0000000e+00   9.8763301e-05   9.6678702e-05   2.7859371e-05   2.4911280e-04   2.5961055e-04   6.4288434e-05   1.7472341e-06   3.5575144e-05   7.9958753e-05   2.1702129e-04   2.4527127e-04   6.6457547e-05   8.6317500e-05   9.9489959e-06   1.3868799e-04   9.6498925e-05   1.1288543e-04   5.8564267e-05  -1.0082512e-04   3.2471451e-04   3.0310377e-05   9.6787348e-05  -5.6025108e-04  -4.7968654e-04  -1.1923863e-04   1.5344985e-05   9.0526582e-05   1.9408687e-04  -2.2484697e-04   8.2375272e-05  -3.8888149e-05  -1.7856831e-04  -1.6638247e-04  -1.2549204e-04  -6.8407607e-05  -1.3514844e-04  -1.8648068e-04   0.0000000e+00  -7.4580697e-05   1.8203250e-07   1.9609130e-04  -1.9348880e-04  -2.6493067e-04   1.1905964e-04   1.8533046e-04   1.9324539e-04   3.0318464e-04  -9.6009956e-05  -2.3039254e-04  -2.9126235e-05   2.4353290e-04   1.1461573e-04   7.5562196e-05  -2.2119353e-05   2.2955119e-04  -3.9119463e-05  -1.3240445e-04  -8.2056940e-06  -2.7102472e-05  -1.2137587e-04  -1.8359353e-04  -2.8375672e-04  -1.7142668e-04  -1.7310166e-04  -4.0893652e-04  -2.7187243e-04  -4.0815027e-04  -3.6159106e-04  -1.6253797e-04  -2.6277361e-04  -5.5600224e-04  -3.1891621e-04  -2.3122390e-04  -5.3422990e-04  -6.9179489e-04   0.0000000e+00  -5.1384326e-04  -3.9274809e-05   3.3895609e-05  -8.3555597e-04  -6.4384850e-04  -2.7328202e-04  -6.7283388e-05   8.2345704e-05  -3.8562541e-05  -4.6071218e-04  -4.5329869e-04  -2.8529605e-04  -1.1788311e-04   1.2065796e-04  -1.3823795e-04  -8.1655960e-05  -3.2144490e-06   4.2822234e-05  -7.3384685e-06   1.1909050e-04  -7.4465914e-05   2.6962077e-05   2.0885581e-04   9.9440361e-05   3.2481206e-05  -1.8733178e-05   1.5537641e-05   3.7446904e-05   1.8318962e-04   7.5490832e-05  -3.9093579e-05  -6.1580667e-05   9.9851190e-06  -1.9424031e-05  -5.5698841e-05  -1.0662117e-05   6.6241060e-06   0.0000000e+00   2.0006409e-05  -3.2028871e-05  -6.0503373e-05   7.3244867e-05   1.4844916e-05  -4.7875994e-05  -3.3886671e-05   1.5621489e-06  -1.6412183e-05   2.3691262e-05  -3.0896088e-05   2.8351397e-05  -3.3345340e-05   6.0094981e-05   1.4691944e-04  -4.9138482e-06  -1.2928881e-06   3.1276903e-04  -2.4312965e-04  -1.8265499e-04   1.6722279e-05   2.7355111e-04  -6.4296305e-05  -8.6766590e-08  -1.7939148e-04  -1.2411101e-04   1.8249158e-04   4.9427916e-04   7.3713497e-05  -4.9376802e-05   2.2541245e-06  -2.8693250e-05   8.7982224e-05   3.4923280e-04   6.5271388e-04   4.3375542e-04   4.5233403e-04   0.0000000e+00   1.1143160e-04   3.6194874e-04   1.1585853e-04   3.6392954e-04   5.8662589e-04   8.0458774e-05   3.5760881e-05   8.4797617e-06  -2.3396666e-04   5.7316314e-04   4.8226718e-04   9.8570431e-05   3.2020010e-04   1.0941310e-04  -1.2746497e-04  -1.8312125e-04   9.7414124e-07  -9.4349934e-06  -9.7235799e-05   1.5044659e-05  -5.2663610e-05   3.0924097e-05  -7.0700523e-05  -4.9520624e-06  -9.4929633e-05  -4.8757177e-05  -1.6792898e-05   1.9412305e-05  -1.6409853e-05  -4.6812530e-05  -1.0965427e-04  -5.0101955e-05   5.0660500e-05  -7.4295664e-05  -7.2641560e-05  -2.8206136e-05   1.9172094e-05   0.0000000e+00   4.5087978e-06   3.6846343e-05   2.2967610e-06   5.7412982e-06  -6.2504139e-05   9.6941040e-06   1.7512707e-05  -4.2582519e-05  -8.3534869e-05   3.1430090e-06  -5.1960248e-05  -1.2617126e-05   5.9926458e-05  -6.3169386e-06  -2.1989326e-04  -4.7368465e-05   1.3854749e-04   2.1128144e-04   7.5383213e-05   2.7961420e-05   1.1661021e-04   1.3261449e-04   6.9267696e-05   1.2527640e-04   5.3169184e-05   2.4343430e-04   4.0387444e-04   3.5147433e-04   3.0223050e-04   1.3133465e-04   6.0376542e-05   2.0225638e-04   2.1413350e-04   1.3032057e-04   9.4578808e-05   1.3126150e-04   1.4214158e-04   0.0000000e+00   1.6921086e-04   2.0765136e-04   1.5165509e-04   3.0978306e-06   5.0643723e-05   1.3617062e-04   7.7409482e-05   8.4911553e-05   4.8531348e-05  -5.9804988e-06   1.3950556e-05  -9.9624091e-06   1.7509861e-04   1.6619252e-04  -9.1374918e-06   8.6242750e-05   1.4692575e-04   2.1813744e-04  -1.2944130e-04  -2.0604592e-04   9.9530451e-06   1.4240118e-05  -7.9758779e-05   5.3670182e-05  -5.4481670e-05   7.4878230e-05   1.5878843e-04  -4.9172065e-05  -1.6950951e-05   4.2287642e-05  -4.3027222e-06   1.4047568e-04   1.4785699e-04   8.6102384e-05   3.7982086e-06   7.2043006e-05   3.0974976e-04   0.0000000e+00   2.9502473e-04   3.0599047e-04   9.5173106e-05   6.5134668e-05   4.2196039e-05   2.0051406e-04   1.1465225e-04  -3.6651065e-05  -3.9195778e-05   2.9890091e-04   2.3694230e-04   9.7144462e-05   2.0235131e-04   1.8115244e-04  -9.4235717e-05   5.7679923e-05  -1.1976378e-04  -1.2716264e-04  -8.8871139e-04  -2.8611817e-04  -1.3908876e-04  -1.3121347e-04  -1.5821257e-03  -2.1967477e-03  -6.9707543e-04  -5.2682998e-04  -3.5473258e-04  -2.8084445e-04  -1.4449193e-03  -7.8277022e-04  -9.8045607e-04  -7.4078194e-04  -1.4400068e-05   1.3340666e-04   8.5453464e-05  -1.5829554e-04  -4.8123939e-04   0.0000000e+00  -3.5429562e-04  -6.2579735e-05  -7.9114553e-05  -1.2289134e-04   4.4004325e-04   1.2013214e-04  -8.6829362e-05  -3.1119366e-04  -4.4295664e-04  -3.7143675e-04   2.0244522e-04   9.8628081e-06  -1.0721773e-04  -3.6109600e-04  -9.7031158e-04  -9.0750454e-04  -4.3646502e-05   1.2842662e-04   1.6511676e-04   3.0606941e-04   1.7250496e-05   2.5647419e-04   9.9060523e-04   6.3380481e-04   7.0285418e-04  -5.7089838e-05   1.1748577e-04   4.9079907e-04   6.1905809e-04   6.8369881e-04   5.6615003e-04   3.3053460e-04  -8.2593153e-05   1.9884531e-04   5.6201885e-04   3.8205194e-04   3.7002334e-04   0.0000000e+00   4.1153356e-05   4.4505285e-04   7.6285949e-05   2.9862243e-04   2.9784144e-04   4.5048751e-05   5.6406410e-05   3.4408818e-05  -9.8232935e-05   5.0685505e-04   3.0750054e-04   7.8293076e-05   3.3368043e-04   6.8469858e-05   2.7418162e-04   2.1492739e-04   1.9206523e-04   5.3910289e-05  -1.0274965e-04   2.0338025e-05  -1.1616331e-05   6.6055805e-05  -2.4173698e-04  -7.8283626e-05  -4.4962544e-05  -4.5710907e-06   8.9914462e-05   1.1227361e-04  -2.2501718e-04  -1.2100385e-04   1.3981766e-04   1.9436584e-04   2.0741862e-04   3.0206109e-05   3.9480717e-04   2.2734520e-04   6.5593894e-04   0.0000000e+00   3.4096709e-04  -5.8769081e-05   8.8585595e-06   5.9543624e-04   2.2512660e-04   7.3590925e-05   1.4789423e-05  -4.7899809e-06   3.8526455e-04   6.6249860e-04   5.5211037e-04  -1.0779167e-06   9.9381618e-05   1.9101823e-04  -7.3391163e-05   4.2938781e-05
   8.5025357e-07   7.0964315e-05   9.7972934e-05   1.9565009e-04   9.2063251e-05   1.3470797e-04   1.9874191e-04   2.9133477e-05   1.1085223e-04   8.8143253e-05   1.4095373e-04   3.0361809e-04   9.0867127e-05   5.6671166e-05   3.4611210e-05  -2.6915322e-05  -7.2591716e-05   1.2573771e-04   3.4310907e-04   3.3083993e-04   2.2834367e-04   0.0000000e+00   1.1246995e-04   9.7453173e-05   2.3496191e-05   2.7080535e-04   2.7675220e-04   6.5658405e-05  -1.2218792e-06   2.7957515e-05   7.2320425e-05   2.3696283e-04   2.6921912e-04   7.1210390e-05   8.9856156e-05   8.5746946e-06   1.3168782e-04   9.2170553e-05   1.4107130e-04   7.2863952e-05  -9.9081726e-05   3.3612354e-04   4.9262878e-05   1.1175368e-04  -6.0185533e-04  -5.1625330e-04  -1.3542418e-04   5.1353637e-05   1.2490765e-04   2.1282386e-04  -2.2901737e-04   7.8495650e-05  -6.1624440e-05  -1.7446413e-04  -1.3844325e-04  -1.2309181e-04  -8.3045159e-05  -1.1159054e-04  -1.6203014e-04   0.0000000e+00  -4.6835749e-05   2.4590991e-05   2.3258912e-04  -1.6885047e-04  -2.6608568e-04   1.3881399e-04   2.0999101e-04   2.0790305e-04   3.2964269e-04  -8.1312856e-05  -2.2416417e-04  -2.2227425e-05   2.5432188e-04   1.4101187e-04   5.5688838e-05  -8.2093884e-06   2.5135560e-04  -2.3377347e-05  -1.0968258e-04   7.0082169e-06  -2.0892034e-05  -1.1007924e-04  -1.6847462e-04  -2.6480323e-04  -1.6106359e-04  -1.6203163e-04  -3.4902580e-04  -2.4023827e-04  -3.8325118e-04  -3.5680604e-04  -1.6172764e-04  -2.3706166e-04  -5.2252105e-04  -2.7408724e-04  -2.0797310e-04  -5.0190089e-04  -6.3472644e-04   0.0000000e+00  -4.8821952e-04  -3.7024232e-05   3.8632696e-05  -7.6722941e-04  -6.0020239e-04  -2.3805441e-04  -5.6941311e-05   9.5331593e-05  -5.1788282e-05  -4.1576446e-04  -4.2148325e-04  -2.5708697e-04  -9.8845790e-05   1.2256546e-04  -1.4398852e-04  -8.3023680e-05  -2.0411006e-06   5.6112030e-05  -4.0629188e-06   1.0810574e-04  -7.5846862e-05   2.5901541e-05   2.1733588e-04   1.1929551e-04   3.1183439e-05  -9.5745831e-06   2.3828414e-05   3.3540408e-05   1.9490292e-04   8.5138968e-05  -4.1188573e-05  -5.3690233e-05   2.3437881e-05  -2.5944200e-05  -7.2668902e-05  -1.6840379e-05  -4.0470303e-06   0.0000000e+00   1.9041619e-05  -3.8919786e-05  -5.7577643e-05   6.5330522e-05   6.6630948e-06  -4.1354573e-05  -3.4242054e-05   1.6250436e-06  -2.8502580e-05   7.7717655e-06  -4.7746459e-05   2.5383046e-05  -3.4946984e-05   5.9689314e-05   1.7077588e-04  -6.0420820e-06  -4.1321624e-06   3.6496520e-04  -2.5011904e-04  -2.0365078e-04   1.7358724e-05   2.6184853e-04  -8.3317896e-05  -8.5847305e-06  -1.8502236e-04  -1.2892874e-04   1.7567791e-04   4.7101231e-04   5.8344035e-05  -6.0069198e-05  -8.2420779e-07  -2.9294118e-05   9.0419425e-05   3.4783093e-04   6.3559654e-04   4.1445886e-04   4.1251590e-04   0.0000000e+00   9.6648424e-05   3.9171796e-04   1.3551452e-04   3.3747822e-04   5.7047590e-04   8.0393325e-05   4.3742970e-05   9.0848844e-06  -2.1951122e-04   5.2984069e-04   4.5886890e-04   9.8643932e-05   3.1196546e-04   9.9306462e-05  -1.2079561e-04  -1.8614436e-04  -3.5397655e-06  -3.8213402e-06  -9.5861307e-05   1.0399937e-05  -5.5219174e-05   3.0294151e-05  -7.2216069e-05   6.9700239e-06  -9.4648512e-05  -3.9639236e-05  -7.7823501e-06   1.6645949e-05  -9.2511361e-06  -4.7682537e-05  -1.0819602e-04  -3.5700124e-05   6.8121564e-05  -6.9310171e-05  -8.3359419e-05  -3.1304357e-05   1.6424938e-05   0.0000000e+00   3.6849186e-06   4.3788589e-05   9.8445267e-06   1.9083877e-06  -5.3584988e-05   1.7211211e-05   2.0261633e-05  -4.0562193e-05  -9.4235871e-05  -2.9322859e-06  -4.8734446e-05  -4.6795048e-06   6.0246262e-05   3.8753241e-06  -2.3555294e-04  -5.3996272e-05   1.1492628e-04   2.0747486e-04   7.2407047e-05   6.4352012e-06   9.3770353e-05   1.2562070e-04   1.0828151e-04   1.3698342e-04   8.7267835e-05   2.2683528e-04   3.9703711e-04   3.4439915e-04   3.0814625e-04   1.3130678e-04   8.2517797e-05   1.9418187e-04   1.8780640e-04   1.0137197e-04   8.3780134e-05   1.1745611e-04   1.1006348e-04   0.0000000e+00   1.5614181e-04   1.9798177e-04   1.3377132e-04  -3.0487922e-05   9.4307371e-06   1.2313884e-04   7.0359923e-05   7.2201317e-05   1.4613926e-05  -4.3575707e-05  -1.9458415e-05  -2.6427050e-05   1.5533957e-04   1.4601592e-04   2.6214291e-05   9.4650789e-05   1.6638193e-04   2.2336419e-04  -1.4581541e-04  -2.1128108e-04   3.3907509e-06   3.9878123e-07  -1.1181492e-04   5.6893681e-05  -9.2634850e-05   7.4822795e-05   1.3945491e-04  -8.8791383e-05  -8.8267168e-06   4.0470951e-05  -3.1569007e-05   1.3159965e-04   1.6007525e-04   5.1816300e-05  -6.8930844e-05   1.9074065e-05   2.7254155e-04   0.0000000e+00   2.8017915e-04   3.1774386e-04   1.0326846e-04   1.2895973e-05  -1.9799995e-05   1.8873676e-04   1.2325398e-04  -3.4429158e-05  -5.2204673e-05   2.5875183e-04   1.7085812e-04   8.1910114e-05   2.0775801e-04   1.9451534e-04  -1.4603035e-04   5.4938793e-05  -1.0355501e-04  -1.2060837e-04  -9.4283353e-04  -3.3811653e-04  -2.0952633e-04  -1.8380029e-04  -1.7085984e-03  -2.3159657e-03  -7.3255841e-04  -5.9346407e-04  -4.8808075e-04  -4.2776394e-04  -1.4981498e-03  -8.3965377e-04  -1.0472463e-03  -7.6449293e-04  -2.5205113e-05   3.8250147e-05  -4.8086610e-05  -2.5432186e-04  -5.2378980e-04   0.0000000e+00  -3.9609539e-04  -7.4066784e-05  -7.2706180e-05  -1.6894298e-04   3.7296410e-04   1.2288219e-04  -8.7544996e-05  -3.1954237e-04  -4.6226764e-04  -4.3848973e-04   8.8211231e-05  -3.4923458e-05  -1.3325957e-04  -3.8066389e-04  -1.0401787e-03  -9.3895344e-04  -3.2103834e-05   7.0400673e-05   1.9535936e-04   2.8200975e-04   2.9796912e-05   2.4336877e-04   9.9574837e-04   6.8785313e-04   7.1954806e-04  -2.5178323e-05   1.6070465e-04   4.7143776e-04   6.2956650e-04   7.1435624e-04   5.8355854e-04   3.7507381e-04  -3.8081775e-05   2.0253678e-04   5.1810095e-04   3.7116908e-04   3.5562102e-04   0.0000000e+00   6.3606676e-05   3.9005911e-04   8.3476934e-05   2.7430222e-04   2.5081017e-04   3.4132631e-05   7.4182271e-05   4.0571146e-05  -5.0818862e-05   4.5192017e-04   3.0050174e-04   9.2510357e-05   2.9940417e-04   9.0021435e-05   2.6832104e-04   2.2087227e-04   2.1118705e-04   5.2919409e-05  -1.0233441e-04   3.9989011e-05  -8.5295645e-06   7.7835679e-05  -2.4585182e-04  -9.7470166e-05  -5.6636076e-05  -7.8293428e-06   1.0395398e-04   1.3779949e-04  -2.1858245e-04  -1.2248387e-04   1.2996717e-04   1.8716064e-04   2.1000803e-04   2.4149864e-05   4.2294734e-04   2.3701086e-04   6.5535984e-04   0.0000000e+00   3.2687689e-04  -7.4083277e-05   5.8386760e-06   5.5215093e-04   2.0557269e-04   5.5539438e-05   2.1852988e-05  -1.3705755e-06   4.2772408e-04   6.4762363e-04   5.3567332e-04  -5.0631660e-06   1.0903476e-04   1.9155863e-04  -7.3381326e-05   4.1515138e-05
  -2.3849505e-06   7.1632722e-05   8.7825933e-05   1.8713475e-04   8.8681848e-05   1.3722269e-04   1.9232567e-04   3.0592377e-05   1.0763092e-04   8.2411204e-05   1.4411524e-04   3.1088547e-04   8.5039050e-05   5.3968348e-05   3.1622123e-05  -2.0657980e-05  -6.6330673e-05   1.3846136e-04   3.5693373e-04   3.4127066e-04   2.4511919e-04   0.0000000e+00   1.2436446e-04   9.6644784e-05   1.8282156e-05   2.8833336e-04   2.8959850e-04   6.5846319e-05  -4.6313925e-06   1.9649621e-05   6.2507167e-05   2.5342899e-04   2.8891840e-04   7.4605378e-05   9.1587468e-05   6.7047179e-06   1.2176267e-04   8.5269217e-05   1.6567032e-04   7.4753722e-05  -9.8770486e-05   3.2921363e-04   6.4177699e-05   1.2056378e-04  -6.4626602e-04  -5.5079926e-04  -1.5662019e-04   8.6739298e-05   1.5171178e-04   2.1511477e-04  -2.3435633e-04   7.0854761e-05  -8.6994484e-05  -1.6686746e-04  -1.0496207e-04  -1.2124458e-04  -1.0769058e-04  -9.3141146e-05  -1.3495157e-04   0.0000000e+00  -1.7571964e-05   3.7526163e-05   2.5964897e-04  -1.4006249e-04  -2.6077846e-04   1.5463280e-04   2.2843147e-04   2.1754929e-04   3.4411545e-04  -6.6774343e-05  -2.1494372e-04  -1.3769725e-05   2.5558132e-04   1.6623813e-04   2.6091190e-05   4.0273662e-06   2.6526205e-04  -5.0510140e-06  -8.5626037e-05   2.1015920e-05  -1.4832413e-05  -9.4933076e-05  -1.5214130e-04  -2.4208676e-04  -1.4887269e-04  -1.4699896e-04  -2.7919117e-04  -2.0018851e-04  -3.5237498e-04  -3.4704443e-04  -1.5765786e-04  -2.0285034e-04  -4.7533841e-04  -2.2032430e-04  -1.7440772e-04  -4.5597601e-04  -5.6436927e-04   0.0000000e+00  -4.5350907e-04  -3.3870090e-05   4.2183359e-05  -6.8340233e-04  -5.4017221e-04  -1.9820886e-04  -4.7592799e-05   1.0525437e-04  -6.6242409e-05  -3.6147935e-04  -3.7670867e-04  -2.2292072e-04  -7.9931146e-05   1.2213784e-04  -1.4982532e-04  -8.9187624e-05  -3.0571521e-06   6.4844256e-05  -1.9623945e-06   9.2647569e-05  -7.6939977e-05   2.1436122e-05   2.2712321e-04   1.4034151e-04   3.0689708e-05  -3.6120375e-06   2.7384139e-05   2.5041257e-05   2.0527308e-04   9.5751360e-05  -4.0834229e-05  -4.5744226e-05   3.3609269e-05  -3.3944663e-05  -9.1205097e-05  -2.5977577e-05  -1.5440387e-05   0.0000000e+00   1.7218306e-05  -4.9955272e-05  -5.6688892e-05   5.3442251e-05  -6.2743595e-06  -3.8113260e-05  -3.6715856e-05  -1.7730541e-07  -4.0167590e-05  -9.5424330e-06  -6.7185116e-05   1.9924401e-05  -4.0760473e-05   5.5239599e-05   1.9653119e-04  -6.8338425e-06  -8.6060110e-06   4.1887825e-04  -2.5462948e-04  -2.2003774e-04   1.6980335e-05   2.4726282e-04  -1.0040052e-04  -2.0610788e-05  -1.8644696e-04  -1.3332853e-04   1.6216345e-04   4.4168914e-04   4.2640001e-05  -6.9564402e-05  -1.7347055e-06  -2.9568329e-05   8.7897997e-05   3.4033431e-04   6.1234607e-04   3.9080089e-04   3.6890510e-04   0.0000000e+00   8.0671563e-05   4.2069328e-04   1.5392729e-04   3.1111822e-04   5.5120975e-04   8.1191655e-05   5.0341296e-05   9.0584046e-06  -2.0686100e-04   4.8376420e-04   4.3118064e-04   9.6126248e-05   3.0223460e-04   8.6192252e-05  -1.1282308e-04  -1.8902441e-04  -7.8810853e-06   1.1169993e-06  -9.3340232e-05   7.1450794e-06  -5.5957112e-05   2.9513106e-05  -7.1896951e-05   1.9037855e-05  -9.3499108e-05  -3.0390490e-05   1.8617185e-07   1.4012125e-05  -1.4740331e-06  -4.8557241e-05  -1.0509468e-04  -2.1284810e-05   8.3597571e-05  -6.2323021e-05  -9.1658533e-05  -3.3413429e-05   1.3399477e-05   0.0000000e+00   2.2944195e-06   4.8488262e-05   1.5990283e-05  -1.5381627e-06  -4.2624006e-05   2.4158742e-05   2.2463281e-05  -3.8155385e-05  -1.0258911e-04  -8.4878148e-06  -4.4113463e-05   2.6920617e-06   5.9777839e-05   1.2934418e-05  -2.4898611e-04  -5.9987596e-05   9.2543357e-05   2.0305998e-04   6.8971048e-05  -1.3594462e-05   6.8534802e-05   1.1528085e-04   1.5293684e-04   1.5512078e-04   1.2124854e-04   2.0568066e-04   3.8053499e-04   3.2529176e-04   3.1684727e-04   1.3415977e-04   1.0452374e-04   1.8215769e-04   1.5666784e-04   6.8514355e-05   6.9401834e-05   9.8519450e-05   7.4767395e-05   0.0000000e+00   1.3869360e-04   1.8661587e-04   1.1424530e-04  -6.6195232e-05  -3.3640314e-05   1.0668616e-04   6.2710312e-05   5.9343973e-05  -1.9647831e-05  -8.0858186e-05  -5.4549173e-05  -4.2377823e-05   1.3258664e-04   1.2414311e-04   6.5374208e-05   1.0610495e-04   1.8462167e-04   2.2850963e-04  -1.5778482e-04  -2.1456779e-04  -7.0817145e-07  -1.2345050e-05  -1.3968410e-04   6.0314283e-05  -1.2648443e-04   7.5597940e-05   1.2236735e-04  -1.2558802e-04  -1.5897915e-07   3.9658941e-05  -5.6188510e-05   1.2361580e-04   1.7179846e-04   1.9959344e-05  -1.3754925e-04  -3.2004375e-05   2.2917727e-04   0.0000000e+00   2.6101571e-04   3.2999604e-04   1.1407845e-04  -3.5637118e-05  -7.7585391e-05   1.7889862e-04   1.3196699e-04  -2.9736483e-05  -6.2714949e-05   2.1269176e-04   1.0451193e-04   6.7389689e-05   2.1324730e-04   2.0589760e-04  -1.9133924e-04   5.3291948e-05  -7.8474009e-05  -1.0008738e-04  -9.8373584e-04  -3.7550095e-04  -2.8226964e-04  -2.3588019e-04  -1.8280737e-03  -2.4273210e-03  -7.5906665e-04  -6.4699242e-04  -6.1253356e-04  -5.7845440e-04  -1.5484388e-03  -8.9555688e-04  -1.1056043e-03  -7.7851435e-04  -3.0535960e-05  -6.2662554e-05  -1.9859689e-04  -3.5277035e-04  -5.5829457e-04   0.0000000e+00  -4.3076157e-04  -7.7028769e-05  -6.3017981e-05  -2.1712857e-04   2.9256963e-04   1.2510654e-04  -8.5999874e-05  -3.2136145e-04  -4.7798962e-04  -5.0330803e-04  -3.6838804e-05  -7.7959939e-05  -1.5254540e-04  -3.9212536e-04  -1.0948234e-03  -9.6366778e-04  -1.3090064e-05   9.7076778e-06   2.2851509e-04   2.5848927e-04   4.4000159e-05   2.2113551e-04   9.9615735e-04   7.3572677e-04   7.3701664e-04   9.6173436e-06   2.0118238e-04   4.3787871e-04   6.3622731e-04   7.4252836e-04   6.0185399e-04   4.2215473e-04   4.2474092e-06   2.0527224e-04   4.6417398e-04   3.5133231e-04   3.3391903e-04   0.0000000e+00   8.9036528e-05   3.3260900e-04   8.8199752e-05   2.4497059e-04   1.9439392e-04   2.0277698e-05   9.3775850e-05   4.8022298e-05   1.0861067e-05   3.8664526e-04   2.9051492e-04   1.0646296e-04   2.5631071e-04   1.1096203e-04   2.6656106e-04   2.2869313e-04   2.2936197e-04   5.1393280e-05  -1.0062093e-04   6.1281845e-05  -4.7863480e-06   8.8546598e-05  -2.4920453e-04  -1.1999003e-04  -6.8652422e-05  -1.0700662e-05   1.1968802e-04   1.6379510e-04  -2.1247448e-04  -1.2691548e-04   1.1785491e-04   1.7461114e-04   2.0869296e-04   2.2770299e-05   4.4900822e-04   2.4541172e-04   6.4238167e-04   0.0000000e+00   3.0708821e-04  -8.5491607e-05   3.5215716e-06   4.9835483e-04   1.8508654e-04   3.5955192e-05   2.8940480e-05   2.2870466e-06   4.6902906e-04   6.2225031e-04   5.1137092e-04  -7.2290913e-06   1.1615238e-04   1.8973819e-04  -6.9764506e-05   4.1616449e-05
  -6.4302242e-06   7.1093172e-05   7.5999851e-05   1.7631530e-04   8.3610056e-05   1.3761170e-04   1.8257786e-04   3.0634185e-05   1.0218966e-04   7.5014616e-05   1.4442209e-04   3.1334164e-04   7.7485674e-05   4.9977506e-05   2.8026943e-05  -1.4680133e-05  -5.9504839e-05   1.4871141e-04   3.6510273e-04   3.4621820e-04   2.5794839e-04   0.0000000e+00   1.3408977e-04   9.4560981e-05   1.2451028e-05   3.0122741e-04   2.9786263e-04   6.4954452e-05  -8.3355159e-06   1.1007095e-05   5.0829669e-05   2.6596504e-04   3.0376321e-04   7.6576885e-05   9.1595924e-05   4.4478574e-06   1.0940808e-04   7.5980809e-05   1.8544251e-04   6.2464426e-05  -9.9665776e-05   3.0075036e-04   7.3559980e-05   1.2138863e-04  -6.9342807e-04  -5.8209845e-04  -1.8240341e-04   1.2062433e-04   1.6912879e-04   1.9765087e-04  -2.4139771e-04   5.9408074e-05  -1.1477780e-04  -1.5531275e-04  -6.6343520e-05  -1.2055683e-04  -1.4351838e-04  -8.2718205e-05  -1.0689657e-04   0.0000000e+00   1.1956306e-05   3.6040778e-05   2.7516949e-04  -1.0884906e-04  -2.5012574e-04   1.6538542e-04   2.3970935e-04   2.2167634e-04   3.4560467e-04  -5.3676017e-05  -2.0291071e-04  -4.0312409e-06   2.4610390e-04   1.8976693e-04  -1.3338359e-05   1.4036186e-05   2.7000205e-04   1.4733523e-05  -6.1544632e-05   3.3026517e-05  -9.3480000e-06  -7.6844704e-05  -1.3563969e-04  -2.1710533e-04  -1.3559649e-04  -1.2887725e-04  -2.0325978e-04  -1.5402834e-04  -3.1748630e-04  -3.3338731e-04  -1.5055966e-04  -1.6114300e-04  -4.1673145e-04  -1.6041581e-04  -1.3238192e-04  -3.9869668e-04  -4.8354626e-04   0.0000000e+00  -4.1136669e-04  -3.0138302e-05   4.4422584e-05  -5.8777295e-04  -4.6669493e-04  -1.5581649e-04  -3.9926474e-05   1.1159453e-04  -8.1768022e-05  -3.0026927e-04  -3.2094213e-04  -1.8469432e-04  -6.2422980e-05   1.1946322e-04  -1.5586234e-04  -1.0054606e-04  -6.6782768e-06   6.8490981e-05  -1.4471689e-06   7.3493623e-05  -7.8095847e-05   1.3458081e-05   2.3829200e-04   1.6185554e-04   3.1081558e-05  -1.7067434e-06   2.5263631e-05   1.1844910e-05   2.1407722e-04   1.0706172e-04  -3.7946034e-05  -3.8661350e-05   3.9365698e-05  -4.3606666e-05  -1.1095321e-04  -3.8217749e-05  -2.7485058e-05   0.0000000e+00   1.4209449e-05  -6.4799700e-05  -5.8306588e-05   3.7569591e-05  -2.4040278e-05  -3.8836261e-05  -4.1540427e-05  -3.9422509e-06  -5.0993951e-05  -2.7795909e-05  -8.9171418e-05   1.1906117e-05  -5.1006222e-05   4.6594508e-05   2.2355497e-04  -7.3442831e-06  -1.5069749e-05   4.7309766e-04  -2.5709600e-04  -2.3172412e-04   1.5425094e-05   2.3098654e-04  -1.1513077e-04  -3.6001331e-05  -1.8406229e-04  -1.3775423e-04   1.4220898e-04   4.0831323e-04   2.7497970e-05  -7.7649130e-05  -6.3366166e-07  -3.0018361e-05   8.0375204e-05   3.2701898e-04   5.8465920e-04   3.6419685e-04   3.2394435e-04   0.0000000e+00   6.4050242e-05   4.4791404e-04   1.7053795e-04   2.8645063e-04   5.3065146e-04   8.3084504e-05   5.5077533e-05   8.2010676e-06  -1.9825458e-04   4.3780991e-04   4.0061007e-04   9.0984070e-05   2.9214229e-04   7.0625543e-05  -1.0501194e-04  -1.9243688e-04  -1.1626837e-05   4.9080710e-06  -8.9895269e-05   5.3956196e-06  -5.4862146e-05   2.8498438e-05  -6.9754978e-05   3.0867681e-05  -9.1686937e-05  -2.1481172e-05   6.4900037e-06   1.1212840e-05   6.6754325e-06  -4.9370957e-05  -1.0059206e-04  -7.4665367e-06   9.6554347e-05  -5.3904502e-05  -9.7746603e-05  -3.4863459e-05   1.0013374e-05   0.0000000e+00   3.0518487e-07   5.0618631e-05   2.0394989e-05  -4.6667165e-06  -3.0559401e-05   3.0087215e-05   2.4050711e-05  -3.5488042e-05  -1.0805932e-04  -1.3566234e-05  -3.8743732e-05   9.0660353e-06   5.8471414e-05   2.0489422e-05  -2.5967725e-04  -6.4951655e-05   7.2506243e-05   1.9856924e-04   6.5136613e-05  -3.2007525e-05   4.1855161e-05   1.0201654e-04   2.0127254e-04   1.7988767e-04   1.5228298e-04   1.8111266e-04   3.5495426e-04   2.9494526e-04   3.2953066e-04   1.4015934e-04   1.2438105e-04   1.6637929e-04   1.2244511e-04   3.2647356e-05   5.1222218e-05   7.4751416e-05   3.7447143e-05   0.0000000e+00   1.1730226e-04   1.7416925e-04   9.3926539e-05  -1.0314553e-04  -7.7092424e-05   8.7457162e-05   5.4547594e-05   4.6663400e-05  -5.3366504e-05  -1.1660953e-04  -9.0413794e-05  -5.7260385e-05   1.0767174e-04   1.0190800e-04   1.0513485e-04   1.1983023e-04   2.0032710e-04   2.3285946e-04  -1.6522511e-04  -2.1693309e-04  -2.2319424e-06  -2.3824606e-05  -1.6195428e-04   6.4206889e-05  -1.5445198e-04   7.7030150e-05   1.0812742e-04  -1.5877123e-04   8.8312047e-06   4.0159590e-05  -7.6899272e-05   1.1710373e-04   1.8259716e-04  -8.3953641e-06  -1.9977917e-04  -7.9461422e-05   1.8116678e-04   0.0000000e+00   2.3831763e-04   3.4205754e-04   1.2723018e-04  -7.8741940e-05  -1.2909162e-04   1.7174821e-04   1.4038047e-04  -2.2777280e-05  -7.0127663e-05   1.6230397e-04   4.0459526e-05   5.4100250e-05   2.1833642e-04   2.1467947e-04  -2.2783683e-04   5.3205005e-05  -4.5928571e-05  -6.5582576e-05  -1.0097252e-03  -3.9557357e-04  -3.5415234e-04  -2.8526106e-04  -1.9382827e-03  -2.5297266e-03  -7.7597376e-04  -6.8534964e-04  -7.2286523e-04  -7.2671805e-04  -1.5961220e-03  -9.5031876e-04  -1.1547808e-03  -7.8317418e-04  -2.9899066e-05  -1.6511293e-04  -3.6034021e-04  -4.4961555e-04  -5.8379170e-04   0.0000000e+00  -4.5708165e-04  -7.0634890e-05  -5.0404846e-05  -2.6569541e-04   2.0218719e-04   1.2712001e-04  -8.2687742e-05  -3.1705116e-04  -4.9143709e-04  -5.6384020e-04  -1.6792046e-04  -1.1740091e-04  -1.6400358e-04  -3.9535778e-04  -1.1341985e-03  -9.8209033e-04   1.3423391e-05  -5.1003087e-05   2.6395219e-04   2.3811259e-04   5.9362891e-05   1.9119988e-04   9.9345781e-04   7.7597748e-04   7.5615484e-04   4.6120273e-05   2.3754929e-04   3.9238716e-04   6.3942066e-04   7.6850964e-04   6.2158103e-04   4.7095230e-04   4.2462352e-05   2.0754261e-04   4.0425143e-04   3.2416559e-04   3.0691508e-04   0.0000000e+00   1.1687068e-04   2.7652611e-04   9.0012900e-05   2.1328872e-04   1.3301716e-04   4.2615740e-06   1.1471691e-04   5.6729192e-05   8.5068583e-05   3.1573826e-04   2.7922767e-04   1.1993840e-04   2.0734378e-04   1.3064395e-04   2.6902655e-04   2.3862528e-04   2.4629714e-04   4.9611940e-05  -9.7865791e-05   8.2907064e-05  -5.3482957e-07   9.7727052e-05  -2.5216851e-04  -1.4486200e-04  -8.0087346e-05  -1.3216421e-05   1.3656635e-04   1.8918502e-04  -2.0729670e-04  -1.3407137e-04   1.0440196e-04   1.5728347e-04   2.0324485e-04   2.6656882e-05   4.7279845e-04   2.5251609e-04   6.1783658e-04   0.0000000e+00   2.8269948e-04  -9.2221206e-05   2.4327691e-06   4.3673395e-04   1.6515166e-04   1.5718727e-05   3.6072370e-05   6.0632531e-06   5.0799374e-04   5.8833800e-04   4.8128614e-04  -7.1319172e-06   1.2092930e-04   1.8629801e-04  -6.2307311e-05   4.3858128e-05
  -1.1063839e-05   6.9589600e-05   6.2890609e-05   1.6393355e-04   7.7011969e-05   1.3597504e-04   1.6988395e-04   2.9135262e-05   9.4809700e-05   6.6218942e-05   1.4196453e-04   3.1107072e-04   6.8442243e-05   4.4779391e-05   2.3995461e-05  -9.2476416e-06  -5.2398938e-05   1.5618409e-04   3.6744686e-04   3.4567538e-04   2.6652536e-04   0.0000000e+00   1.4137648e-04   9.1592668e-05   6.2825048e-06   3.0919707e-04   3.0143648e-04   6.3131701e-05  -1.2155778e-05   2.4015031e-06   3.7699112e-05   2.7426428e-04   3.1334253e-04   7.7118142e-05   9.0056755e-05   1.9379624e-06   9.5207656e-05   6.4608277e-05   1.9933384e-04   3.4938412e-05  -1.0131968e-04   2.4872619e-04   7.6177785e-05   1.1278366e-04  -7.4289644e-04  -6.0892378e-04  -2.1193230e-04   1.5225349e-04   1.7587258e-04   1.5817777e-04  -2.5051288e-04   4.4346257e-05  -1.4456665e-04  -1.3937570e-04  -2.3179139e-05  -1.2155198e-04  -1.9101421e-04  -8.2837461e-05  -7.9563883e-05   0.0000000e+00   4.0489991e-05   1.7860172e-05   2.7762865e-04  -7.7097904e-05  -2.3555342e-04   1.7015410e-04   2.4322441e-04   2.2004177e-04   3.3382020e-04  -4.3268820e-05  -1.8829774e-04   6.6285177e-06   2.2527733e-04   2.1113824e-04  -6.2005175e-05   2.1454793e-05   2.6494991e-04   3.4813525e-05  -3.8658599e-05   4.2478219e-05  -4.7677264e-06  -5.6846967e-05  -1.1991118e-04  -1.9139391e-04  -1.2196347e-04  -1.0862616e-04  -1.2533147e-04  -1.0435857e-04  -2.8061368e-04  -3.1704114e-04  -1.4079294e-04  -1.1320627e-04  -3.4944681e-04  -9.7508249e-05  -8.4219345e-05  -3.3280114e-04  -3.9555892e-04   0.0000000e+00  -3.6378355e-04  -2.6177816e-05   4.5325347e-05  -4.8462328e-04  -3.8341698e-04  -1.1306625e-04  -3.4494216e-05   1.1403286e-04  -9.8125771e-05  -2.3492286e-04  -2.5675915e-04  -1.4451064e-04  -4.7456771e-05   1.1471077e-04  -1.6212170e-04  -1.1701723e-04  -1.3183971e-05   6.6884427e-05  -2.8143774e-06   5.1655827e-05  -7.9652834e-05   2.0939489e-06   2.5087531e-04   1.8309656e-04   3.2418931e-05  -4.4945403e-06   1.6845458e-05  -5.8220354e-06   2.2119872e-04   1.1877138e-04  -3.2545893e-05  -3.3323544e-05   3.9790853e-05  -5.5002629e-05  -1.3140955e-04  -5.3482681e-05  -4.0073868e-05   0.0000000e+00   9.7108404e-06  -8.2860358e-05  -6.2748914e-05   1.7916459e-05  -4.6387049e-05  -4.3958466e-05  -4.8804794e-05  -9.6415337e-06  -6.0649485e-05  -4.6466654e-05  -1.1349880e-04   1.4100131e-06  -6.5592036e-05   3.3827350e-05   2.5118922e-04  -7.6341151e-06  -2.3751978e-05   5.2606378e-04  -2.5800893e-04  -2.3885450e-04   1.2616772e-05   2.1422513e-04  -1.2728472e-04  -5.4422263e-05  -1.7852592e-04  -1.4260037e-04   1.1647732e-04   3.7295519e-04   1.3847944e-05  -8.4186047e-05   2.1505440e-06  -3.1186974e-05   6.8159269e-05   3.0839004e-04   5.5417017e-04   3.3606984e-04   2.7997207e-04   0.0000000e+00   4.7334530e-05   4.7239729e-04   1.8491196e-04   2.6475769e-04   5.1029595e-04   8.6225181e-05   5.7594565e-05   6.3630185e-06  -1.9557987e-04   3.9453188e-04   3.6850689e-04   8.3329663e-05   2.8275058e-04   5.3315992e-05  -9.8846938e-05  -1.9702372e-04  -1.4373421e-05   7.1591360e-06  -8.5760327e-05   5.1847384e-06  -5.2022531e-05   2.7163441e-05  -6.5862097e-05   4.2103578e-05  -8.9393858e-05  -1.3309345e-05   1.0637537e-05   7.9157153e-06   1.4949179e-05  -5.0011550e-05  -9.4963808e-05   5.2202124e-06   1.0663485e-04  -4.4707328e-05  -1.0198032e-04  -3.6050432e-05   6.1883855e-06   0.0000000e+00  -2.2657520e-06   5.0091152e-05   2.2844579e-05  -7.5723796e-06  -1.8425707e-05   3.4612739e-05   2.4998005e-05  -3.2669371e-05  -1.1021784e-04  -1.8240206e-05  -3.3335372e-05   1.4079798e-05   5.6324853e-05   2.6313277e-05  -2.6714176e-04  -6.8533431e-05   5.5723170e-05   1.9447254e-04   6.1020389e-05  -4.8847248e-05   1.4749931e-05   8.6411761e-05   2.5098750e-04   2.1105466e-04   1.7748418e-04   1.5450913e-04   3.2133771e-04   2.5479536e-04   3.4718615e-04   1.4932464e-04   1.3998986e-04   1.4718657e-04   8.7091126e-05  -5.2323119e-06   2.9091828e-05   4.6652119e-05  -7.0055520e-07   0.0000000e+00   9.2524326e-05   1.6127312e-04   7.3656318e-05  -1.4040359e-04  -1.1940218e-04   6.6232717e-05   4.5944290e-05   3.4437546e-05  -8.5708048e-05  -1.4977717e-04  -1.2616793e-04  -7.0586521e-05   8.1492248e-05   8.0687487e-05   1.4191124e-04   1.3476865e-04   2.1225501e-04   2.3569888e-04  -1.6829219e-04  -2.1939201e-04  -1.2899974e-06  -3.3987562e-05  -1.7745680e-04   6.8855087e-05  -1.7530157e-04   7.8829603e-05   9.6987210e-05  -1.8782555e-04   1.7984951e-05   4.2185140e-05  -9.2708779e-05   1.1244457e-04   1.9197265e-04  -3.2527168e-05  -2.5384106e-04  -1.2189092e-04   1.3015915e-04   0.0000000e+00   2.1293963e-04   3.5317675e-04   1.4215236e-04  -1.1514936e-04  -1.7268992e-04   1.6781980e-04   1.4804777e-04  -1.3888790e-05  -7.4036500e-05   1.0928701e-04  -1.9042662e-05   4.2422381e-05   2.2250069e-04   2.2032425e-04  -2.5368849e-04   5.5101899e-05  -7.9301843e-06  -1.7967458e-05  -1.0197569e-03  -3.9646994e-04  -4.2191043e-04  -3.2983186e-04  -2.0376280e-03  -2.6223542e-03  -7.8338767e-04  -7.0729096e-04  -8.1467087e-04  -8.6638371e-04  -1.6414836e-03  -1.0039158e-03  -1.1945718e-03  -7.7938351e-04  -2.3183866e-05  -2.6486951e-04  -5.2696568e-04  -5.4085515e-04  -5.9968114e-04   0.0000000e+00  -4.7418932e-04  -5.4585233e-05  -3.5400512e-05  -3.1277943e-04   1.0562258e-04   1.2918928e-04  -7.8231247e-05  -3.0741544e-04  -5.0412555e-04  -6.1813780e-04  -2.9998474e-04  -1.5164308e-04  -1.6706097e-04  -3.9069499e-04  -1.1596058e-03  -9.9510375e-04   4.6987366e-05  -1.0938451e-04   3.0079414e-04   2.2317499e-04   7.5279343e-05   1.5541704e-04   9.8908929e-04   8.0744296e-04   7.7737775e-04   8.3041478e-05   2.6866031e-04   3.3778721e-04   6.3955310e-04   7.9251560e-04   6.4295052e-04   5.2035580e-04   7.4971740e-05   2.0981030e-04   3.4227854e-04   2.9160980e-04   2.7688491e-04   0.0000000e+00   1.4636991e-04   2.2508373e-04   8.8571291e-05   1.8191085e-04   7.0831126e-05  -1.2985232e-05   1.3639082e-04   6.6562667e-05   1.6905319e-04   2.4388302e-04   2.6829777e-04   1.3272639e-04   1.5566448e-04   1.4845402e-04   2.7533306e-04   2.5061805e-04   2.6177270e-04   4.7792460e-05  -9.4301990e-05   1.0349039e-04   4.0750644e-06   1.0501121e-04  -2.5518619e-04  -1.7094709e-04  -9.0087752e-05  -1.5327137e-05   1.5402358e-04   2.1292874e-04  -2.0353322e-04  -1.4346554e-04   9.0505559e-05   1.3604491e-04   1.9370593e-04   3.6111931e-05   4.9425292e-04   2.5837946e-04   5.8315734e-04   0.0000000e+00   2.5504635e-04  -9.3900089e-05   3.0294874e-06   3.7043022e-04   1.4726225e-04  -4.2108610e-06   4.3302955e-05   9.8194251e-06   5.4356939e-04   5.4824933e-04   4.4783481e-04  -4.3771305e-06   1.2374487e-04   1.8208355e-04  -5.1071909e-05   4.8653406e-05
  -1.6004122e-05   6.7428064e-05   4.8937649e-05   1.5075029e-04   6.9117636e-05   1.3248359e-04   1.5473598e-04   2.6057009e-05   8.5855660e-05   5.6344738e-05   1.3694756e-04   3.0432538e-04   5.8193524e-05   3.8505887e-05   1.9713573e-05  -4.5868403e-06  -4.5295437e-05   1.6069363e-04   3.6402348e-04   3.3983397e-04   2.7070534e-04   0.0000000e+00   1.4604905e-04   8.8183674e-05   8.9226452e-08   3.1213478e-04   3.0038583e-04   6.0561677e-05  -1.5894114e-05  -5.7975046e-06   2.3605388e-05   2.7818072e-04   3.1745394e-04   7.6275632e-05   8.7217796e-05  -6.7801669e-07   7.9794486e-05   5.1561055e-05   2.0655313e-04  -8.0800562e-06  -1.0311028e-04   1.7263334e-04   7.1175837e-05   9.3827996e-05  -7.9382168e-04  -6.3011311e-04  -2.4400273e-04   1.8100588e-04   1.7125646e-04   9.5732854e-05  -2.6187595e-04   2.6100328e-05  -1.7576192e-04  -1.1873919e-04   2.3731884e-05  -1.2464329e-04  -2.4991270e-04  -9.5420666e-05  -5.4611248e-05   0.0000000e+00   6.6830586e-05  -1.8429437e-05   2.6621334e-04  -4.6770850e-05  -2.1872088e-04   1.6829144e-04   2.3875793e-04   2.1269370e-04   3.0918914e-04  -3.6713145e-05  -1.7141142e-04   1.7775538e-05   1.9315555e-04   2.2995525e-04  -1.1859636e-04   2.6129544e-05   2.5020460e-04   5.4083713e-05  -1.8016220e-05   4.9068287e-05  -1.3045452e-06  -3.6032468e-05  -1.0572151e-04  -1.6640998e-04  -1.0862559e-04  -8.7228781e-05  -4.9524067e-05  -5.3895147e-05  -2.4368704e-04  -2.9924232e-04  -1.2883393e-04  -6.0511650e-05  -2.7656727e-04  -3.4892522e-05  -3.2546891e-05  -2.6139809e-04  -3.0405285e-04   0.0000000e+00  -3.1299727e-04  -2.2359496e-05   4.4949169e-05  -3.7861852e-04  -2.9452290e-04  -7.2140062e-05  -3.1661675e-05   1.1243901e-04  -1.1499636e-04  -1.6847157e-04  -1.8719943e-04  -1.0457804e-04  -3.5941594e-05   1.0811308e-04  -1.6854512e-04  -1.3801844e-04  -2.2691738e-05   6.0220482e-05  -6.2234052e-06   2.8310078e-05  -8.1909000e-05  -1.2296186e-05   2.6488440e-04   2.0335839e-04   3.4740662e-05  -1.2337338e-05   1.8831944e-06  -2.7401310e-05   2.2664870e-04   1.3057268e-04  -2.4755284e-05  -3.0518510e-05   3.4254443e-05  -6.8076712e-05  -1.5193568e-04  -7.1458657e-05  -5.3057369e-05   0.0000000e+00   3.4739004e-06  -1.0331847e-04  -7.0160233e-05  -5.0978342e-06  -7.2748681e-05  -5.3629440e-05  -5.8447118e-05  -1.7118970e-05  -6.8915017e-05  -6.4989898e-05  -1.3978172e-04  -1.1329438e-05  -8.4116788e-05   1.7234125e-05   2.7878799e-04  -7.7594268e-06  -3.4718988e-05   5.7615919e-04  -2.5787480e-04  -2.4176272e-04   8.5775221e-06   1.9813607e-04  -1.3683571e-04  -7.5384451e-05  -1.7071492e-04  -1.4816691e-04   8.6014638e-05   3.3766333e-04   2.6188198e-06  -8.9109848e-05   6.1413687e-06  -3.3612933e-05   5.1891815e-05   2.8517412e-04   5.2240778e-04   3.0779942e-04   2.3911328e-04   0.0000000e+00   3.1061192e-05   4.9323455e-04   1.9677581e-04   2.4696884e-04   4.9130805e-04   9.0680507e-05   5.7693901e-05   3.4671069e-06  -2.0016933e-04   3.5606462e-04   3.3611529e-04   7.3428296e-05   2.7499196e-04   3.5099477e-05  -9.5734407e-05  -2.0334238e-04  -1.5767614e-05   7.5916056e-06  -8.1162297e-05   6.4744945e-06  -4.7622294e-05   2.5434388e-05  -6.0333448e-05   5.2434398e-05  -8.6755032e-05  -6.1713108e-06   1.2312723e-05   3.7979320e-06   2.3111461e-05  -5.0323945e-05  -8.8497830e-05   1.6345762e-05   1.1367809e-04  -3.5417825e-05  -1.0482000e-04  -3.7396166e-05   1.8672788e-06   0.0000000e+00  -5.3478233e-06   4.7068754e-05   2.3264245e-05  -1.0355028e-05  -7.2728470e-06   3.7447718e-05   2.5324695e-05  -2.9782708e-05  -1.0876659e-04  -2.2591319e-05  -2.8602527e-05   1.7462912e-05   5.3397408e-05   3.0334575e-05  -2.7096294e-04  -7.0429416e-05   4.2877357e-05   1.9117006e-04   5.6820592e-05  -6.4246100e-05  -1.1730291e-05   6.9187219e-05   2.9960742e-04   2.4798320e-04   1.9416027e-04   1.2738841e-04   2.8114221e-04   2.0684312e-04   3.7056280e-04   1.6144712e-04   1.4934848e-04   1.2508713e-04   5.2655276e-05  -4.4056731e-05   2.9690736e-06   1.4914467e-05  -3.8521546e-05   0.0000000e+00   6.5007984e-05   1.4854691e-04   5.4225313e-05  -1.7700784e-04  -1.5905602e-04   4.3918175e-05   3.6965588e-05   2.2912798e-05  -1.1589757e-04  -1.7952502e-04  -1.6098217e-04  -8.1938474e-05   5.4972433e-05   6.1819522e-05   1.7202688e-04   1.4969459e-04   2.1933704e-04   2.3638975e-04  -1.6738423e-04  -2.2285086e-04   1.7988311e-06  -4.2881665e-05  -1.8530805e-04   7.4526015e-05  -1.8819593e-04   8.0637644e-05   8.8848007e-05  -2.1250994e-04   2.7209795e-05   4.5836682e-05  -1.0295120e-04   1.0979845e-04   1.9939025e-04  -5.2076795e-05  -2.9848216e-04  -1.5824064e-04   7.7882781e-05   0.0000000e+00   1.8576752e-04   3.6262960e-04   1.5811905e-04  -1.4408088e-04  -2.0722275e-04   1.6741062e-04   1.5451352e-04  -3.5186972e-06  -7.4244501e-05   5.5400419e-05  -7.2100541e-05   3.2590098e-05   2.2523169e-04   2.2242066e-04  -2.6761678e-04   5.9334891e-05   3.3031197e-05   4.1040791e-05  -1.0135171e-03  -3.7725431e-04  -4.8238478e-04  -3.6768578e-04  -2.1253265e-03  -2.7047337e-03  -7.8216769e-04  -7.1243622e-04  -8.8457222e-04  -9.9167471e-04  -1.6848144e-03  -1.0564757e-03  -1.2253232e-03  -7.6858221e-04  -1.0652892e-05  -3.5790152e-04  -6.9192698e-04  -6.2274369e-04  -6.0572952e-04   0.0000000e+00  -4.8160890e-04  -2.9128928e-05  -1.8697795e-05  -3.5647753e-04   6.9424229e-06   1.3150570e-04  -7.3350592e-05  -2.9360069e-04  -5.1766249e-04  -6.6445374e-04  -4.2799463e-04  -1.7941138e-04  -1.6168010e-04  -3.7888597e-04  -1.1735550e-03  -1.0040162e-03   8.6681218e-05  -1.6350189e-04   3.3793233e-04   2.1550104e-04   9.1073905e-05   1.1589999e-04   9.8417746e-04   8.2928814e-04   8.0054114e-04   1.1904686e-04   2.9365905e-04   2.7723784e-04   6.3704198e-04   8.1463895e-04   6.6580269e-04   5.6898056e-04   1.0061234e-04   2.1248504e-04   2.8184435e-04   2.5575713e-04   2.4616071e-04   0.0000000e+00   1.7666017e-04   1.8088509e-04   8.3658378e-05   1.5323011e-04   1.1356793e-05  -3.0455297e-05   1.5805938e-04   7.7309502e-05   2.5913259e-04   1.7534800e-04   2.5922631e-04   1.4462166e-04   1.0439578e-04   1.6385266e-04   2.8462701e-04   2.6432413e-04   2.7564383e-04   4.6053131e-05  -9.0108783e-05   1.2170087e-04   8.8933454e-06   1.1015788e-04  -2.5874234e-04  -1.9703674e-04  -9.7954415e-05  -1.6880871e-05   1.7152986e-04   2.3411243e-04  -2.0153042e-04  -1.5440041e-04   7.6981164e-05   1.1201208e-04   1.8041503e-04   5.1119350e-05   5.1342600e-04   2.6313798e-04   5.4029156e-04   0.0000000e+00   2.2563198e-04  -9.0583118e-05   5.6449814e-06   3.0286481e-04   1.3283893e-04  -2.2846557e-05   5.0691177e-05   1.3410590e-05   5.7493603e-04   5.0460284e-04   4.1360711e-04   1.3541522e-06   1.2510393e-04   1.7798727e-04  -3.6412156e-05   5.6163387e-05
  -2.0926700e-05   6.4945023e-05   3.4608760e-05   1.3749059e-04   6.0213680e-05   1.2736585e-04   1.3770898e-04   2.1452809e-05   7.5751230e-05   4.5752761e-05   1.2967756e-04   2.9350893e-04   4.7061754e-05   3.1335752e-05   1.5369266e-05  -8.7468717e-07  -3.8458090e-05   1.6217423e-04   3.5511245e-04   3.2906609e-04   2.7050286e-04   0.0000000e+00   1.4803304e-04   8.4791483e-05  -5.7997478e-06   3.1011429e-04   2.9493605e-04   5.7447025e-05  -1.9342287e-05  -1.3239919e-05   9.0971752e-06   2.7773346e-04   3.1610521e-04   7.4143036e-05   8.3376264e-05  -3.2469385e-06   6.3813874e-05   3.7340149e-05   2.0662329e-04  -6.6019187e-05  -1.0429983e-04   7.3589339e-05   5.8161184e-05   6.4221600e-05  -8.4496691e-04  -6.4465248e-04  -2.7713757e-04   2.0637840e-04   1.5523381e-04   1.0799957e-05  -2.7542945e-04   5.3227448e-06  -2.0759426e-04  -9.3254993e-05   7.3378153e-05  -1.3011541e-04  -3.1919482e-04  -1.2164635e-04  -3.3559812e-05   0.0000000e+00   8.9899821e-05  -7.3280005e-05   2.4089367e-04  -1.9811251e-05  -2.0144257e-04   1.5945546e-04   2.2649152e-04   1.9997436e-04   2.7283423e-04  -3.5011520e-05  -1.5265239e-04   2.8913565e-05   1.5047069e-04   2.4588013e-04  -1.8115276e-04   2.8122385e-05   2.2660664e-04   7.1588359e-05  -4.3774253e-07   5.2786447e-05   9.5833578e-07  -1.5468109e-05  -9.3615565e-05  -1.4344397e-04  -9.6122611e-05  -6.5636925e-05   2.0271662e-05  -5.2793087e-06  -2.0842807e-04  -2.8117492e-04  -1.1524727e-04  -4.6748255e-06  -2.0134865e-04   2.4197975e-05   1.9921873e-05  -1.8774565e-04  -2.1286927e-04   0.0000000e+00  -2.6139801e-04  -1.9038443e-05   4.3411475e-05  -2.7460016e-04  -2.0451558e-04  -3.5103175e-05  -3.1593488e-05   1.0687304e-04  -1.3195662e-04  -1.0404729e-04  -1.1560373e-04  -6.7069040e-05  -2.8494826e-05   9.9935484e-05  -1.7497985e-04  -1.6250518e-04  -3.5137939e-05   4.9033150e-05  -1.1679101e-05   4.7138454e-06  -8.5097419e-05  -2.9135252e-05   2.8032494e-04   2.2201287e-04   3.8062891e-05  -2.5293426e-05  -1.9464352e-05  -5.2016660e-05   2.3057017e-04   1.4217096e-04  -1.4792197e-05  -3.0881955e-05   2.2458322e-05  -8.2629507e-05  -1.7178876e-04  -9.1600909e-05  -6.6244091e-05   0.0000000e+00  -4.6668500e-06  -1.2518213e-04  -8.0495972e-05  -3.0851667e-05  -1.0226169e-04  -6.7704191e-05  -7.0257081e-05  -2.6103198e-05  -7.5699323e-05  -8.2779999e-05  -1.6744869e-04  -2.5930762e-05  -1.0589108e-04  -2.6813083e-06   3.0574574e-04  -7.7598188e-06  -4.7853456e-05   6.2182819e-04  -2.5717703e-04  -2.4092542e-04   3.4324258e-06   1.8377626e-04  -1.4394092e-04  -9.8276104e-05  -1.6165750e-04  -1.5461399e-04   5.2203048e-05   3.0438906e-04  -5.3090804e-06  -9.2416918e-05   1.0746480e-05  -3.7774431e-05   3.2504181e-05   2.5830432e-04   4.9077806e-04   2.8069257e-04   2.0319017e-04   0.0000000e+00   1.5741771e-05   5.0970056e-04   2.0603763e-04   2.3364878e-04   4.7454329e-04   9.6426246e-05   5.5354717e-05  -4.8157681e-07  -2.1265280e-04   3.2406127e-04   3.0454427e-04   6.1689813e-05   2.6962700e-04   1.6897934e-05  -9.6909520e-05  -2.1179767e-04  -1.5536405e-05   6.0682738e-06  -7.6300813e-05   9.1659517e-06  -4.1925085e-05   2.3266152e-05  -5.3313200e-05   6.1609592e-05  -8.3843633e-05  -2.4360649e-07   1.1407031e-05  -1.4038204e-06   3.0960684e-05  -5.0115658e-05  -8.1475049e-05   2.5613592e-05   1.1772114e-04  -2.6708105e-05  -1.0677817e-04  -3.9296809e-05  -2.9690071e-06   0.0000000e+00  -8.8147348e-06   4.1949361e-05   2.1723997e-05  -1.3096173e-05   1.9152284e-06   3.8429710e-05   2.5092892e-05  -2.6880991e-05  -1.0355808e-04  -2.6690417e-05  -2.5205052e-05   1.9052078e-05   4.9817129e-05   3.2635773e-05  -2.7082840e-04  -7.0415623e-05   3.4396021e-05   1.8896776e-04   5.2825439e-05  -7.8348084e-05  -3.6545348e-05   5.1161047e-05   3.4470202e-04   2.8967672e-04   2.0006384e-04   1.0135311e-04   2.3617177e-04   1.5352599e-04   4.0009582e-04   1.7611995e-04   1.5074294e-04   1.0074987e-04   2.1172623e-05  -8.2738783e-05  -2.7067611e-05  -1.9600334e-05  -7.4948034e-05   0.0000000e+00   3.5475237e-05   1.3657988e-04   3.6354877e-05  -2.1198999e-04  -1.9461281e-04   2.1490332e-05   2.7680249e-05   1.2299985e-05  -1.4323753e-04  -2.0525487e-04  -1.9410802e-04  -9.0993212e-05   2.9039716e-05   4.6526941e-05   1.9203390e-04   1.6330681e-04   2.2076381e-04   2.3443768e-04  -1.6309054e-04  -2.2802837e-04   6.5368022e-06  -5.0634398e-05  -1.8492985e-04   8.1450299e-05  -1.9273164e-04   8.2048668e-05   8.3282044e-05  -2.3281926e-04   3.6481820e-05   5.1093396e-05  -1.0733172e-04   1.0909727e-04   2.0430955e-04  -6.7038542e-05  -3.3297994e-04  -1.8783446e-04   2.6087802e-05   0.0000000e+00   1.5768889e-04   3.6978538e-04   1.7429846e-04  -1.6525612e-04  -2.3203890e-04   1.7056884e-04   1.5935108e-04   7.8039912e-06  -7.0775774e-05   2.4053760e-06  -1.1723421e-04   2.4695875e-05   2.2609518e-04   2.2072342e-04  -2.6892788e-04   6.6163108e-05   7.4154659e-05   1.0896869e-04  -9.9147859e-04  -3.3800815e-04  -5.3271601e-04  -3.9723446e-04  -2.2014462e-03  -2.7768424e-03  -7.7387706e-04  -7.0128882e-04  -9.3037676e-04  -1.0975611e-03  -1.7264106e-03  -1.1082821e-03  -1.2479112e-03  -7.5266379e-04   7.0809013e-06  -4.4061070e-04  -8.4888614e-04  -6.9198974e-04  -6.0209169e-04   0.0000000e+00  -4.7927303e-04   4.9444983e-06  -1.1188774e-06  -3.9495906e-04  -8.9739658e-05   1.3416833e-04  -6.8798288e-05  -2.7703667e-04  -5.3356702e-04  -7.0133395e-04  -5.4717350e-04  -1.9980574e-04  -1.4835669e-04  -3.6108059e-04  -1.1795398e-03  -1.0105204e-03   1.3114985e-04  -2.1189984e-04   3.7406775e-04   2.1631797e-04   1.0604252e-04   7.4864431e-05   9.7943296e-04   8.4103306e-04   8.2491223e-04   1.5281597e-04   3.1203050e-04   2.1403743e-04   6.3228287e-04   8.3482174e-04   6.8960229e-04   6.1521353e-04   1.1870820e-04   2.1589675e-04   2.2601559e-04   2.1871290e-04   2.1694283e-04   0.0000000e+00   2.0677221e-04   1.4580860e-04   7.5210213e-05   1.2920212e-04  -4.2648872e-05  -4.7145081e-05   1.7891220e-04   8.8676023e-05   3.5085375e-04   1.1374901e-04   2.5326776e-04   1.5543000e-04   5.6409918e-05   1.7640190e-04   2.9565070e-04   2.7909490e-04   2.8784363e-04   4.4400448e-05  -8.5401791e-05   1.3635430e-04   1.3778442e-05   1.1306039e-04  -2.6333682e-04  -2.2195345e-04  -1.0319595e-04  -1.7642187e-05   1.8862256e-04   2.5199554e-04  -2.0148384e-04  -1.6603114e-04   6.4503680e-05   8.6483347e-05   1.6398613e-04   7.1347677e-05   5.3049348e-04   2.6701825e-04   4.9160155e-04   0.0000000e+00   1.9603790e-04  -8.2769351e-05   1.0445924e-05   2.3754680e-04   1.2312777e-04  -3.9242485e-05   5.8267397e-05   1.6691848e-05   6.0154728e-04   4.6011896e-04   3.8121606e-04   1.0269605e-05   1.2558479e-04   1.7487195e-04  -1.8956850e-05   6.6278023e-05
  -2.5491704e-05   6.2474810e-05   2.0380989e-05   1.2479425e-04   5.0635684e-05   1.2089271e-04   1.1943180e-04   1.5468199e-05   6.4952268e-05   3.4830432e-05   1.2053726e-04   2.7914933e-04   3.5394407e-05   2.3488457e-05   1.1139180e-05   1.7682672e-06  -3.2122317e-05   1.6068041e-04   3.4120251e-04   3.1390333e-04   2.6608652e-04   0.0000000e+00   1.4735301e-04   8.1847842e-05  -1.1060729e-05   3.0337886e-04   2.8544807e-04   5.3993564e-05  -2.2297220e-05  -1.9615491e-05  -5.2498493e-06   2.7310409e-04   3.0950604e-04   7.0850515e-05   7.8852710e-05  -5.6212654e-06   4.7892059e-05   2.2510160e-05   1.9941626e-04  -1.3752079e-04  -1.0410884e-04  -4.5702895e-05   3.7262277e-05   2.4336143e-05  -8.9476010e-04  -6.5173021e-04  -3.0969592e-04   2.2797747e-04   1.2839859e-04  -9.4675700e-05  -2.9087326e-04  -1.7140905e-05  -2.3914831e-04  -6.3006399e-05   1.2454421e-04  -1.3811909e-04  -3.9714476e-04  -1.6184601e-04  -1.7721209e-05   0.0000000e+00   1.0878533e-04  -1.4617242e-04   2.0243948e-04   1.9540932e-06  -1.8559035e-04   1.4362427e-04   2.0699775e-04   1.8250898e-04   2.2650801e-04  -3.8944721e-05  -1.3252957e-04   3.9507844e-05   9.8587554e-05   2.5862972e-04  -2.4719531e-04   2.7690981e-05   1.9567139e-04   8.6578572e-05   1.3518188e-05   5.3885582e-05   2.0628844e-06   3.8772511e-06  -8.3877074e-05  -1.2354503e-04  -8.4859501e-05  -4.4748233e-05   8.0650294e-05   3.9105080e-05  -1.7621804e-04  -2.6388524e-04  -1.0066005e-04   5.2607792e-05  -1.2706609e-04   7.6778439e-05   7.0572957e-05  -1.1510083e-04  -1.2587303e-04   0.0000000e+00  -2.1142373e-04  -1.6553558e-05   4.0868076e-05  -1.7736467e-04  -1.1796521e-04  -3.7712355e-06  -3.4259492e-05   9.7575680e-05  -1.4850520e-04  -4.4704332e-05  -4.5445321e-05  -3.4018119e-05  -2.5408597e-05   9.0464865e-05  -1.8120642e-04  -1.8905448e-04  -5.0274863e-05   3.4139872e-05  -1.9027653e-05  -1.7871895e-05  -8.9364269e-05  -4.7658695e-05   2.9719887e-04   2.3855150e-04   4.2377723e-05  -4.3114262e-05  -4.6633307e-05  -7.8517403e-05   2.3323170e-04   1.5330542e-04  -2.9599280e-06  -3.4859488e-05   4.4570969e-06  -9.8323534e-05  -1.9015318e-04  -1.1315306e-04  -7.9401314e-05   0.0000000e+00  -1.4773804e-05  -1.4735614e-04  -9.3523539e-05  -5.8546059e-05  -1.3380507e-04  -8.5751382e-05  -8.3885922e-05  -3.6223362e-05  -8.1043906e-05  -9.9246683e-05  -1.9576110e-04  -4.1886740e-05  -1.2998057e-04  -2.5236668e-05   3.3150886e-04  -7.6539888e-06  -6.2843622e-05   6.6172326e-04  -2.5633769e-04  -2.3691148e-04  -2.5935342e-06   1.7205837e-04  -1.4892777e-04  -1.2239027e-04  -1.5246656e-04  -1.6193780e-04   1.6690213e-05   2.7491818e-04  -9.1501771e-06  -9.4154224e-05   1.5298720e-05  -4.4040469e-05   1.1146091e-05   2.2889053e-04   4.6055808e-04   2.5594958e-04   1.7366674e-04   0.0000000e+00   1.8495659e-06   5.2135604e-04   2.1279202e-04   2.2501362e-04   4.6060068e-04   1.0336154e-04   5.0747331e-05  -5.3859978e-06  -2.3290014e-04   2.9966607e-04   2.7475516e-04   4.8657573e-05   2.6721904e-04  -3.2746842e-07  -1.0336572e-04  -2.2260635e-04  -1.3505452e-05   2.6058501e-06  -7.1334914e-05   1.3111658e-05  -3.5252718e-05   2.0657364e-05  -4.4956558e-05   6.9454249e-05  -8.0660922e-05   4.4260832e-06   8.0360271e-06  -7.8488747e-06   3.8344279e-05  -4.9168456e-05  -7.4151070e-05   3.2877665e-05   1.1898242e-04  -1.9185972e-05  -1.0836338e-04  -4.2079760e-05  -8.2880051e-06   0.0000000e+00  -1.2488029e-05   3.5330072e-05   1.8432642e-05  -1.5839354e-05   8.3026639e-06   3.7532820e-05   2.4405415e-05  -2.3985573e-05  -9.4604980e-05  -3.0579680e-05  -2.3692530e-05   1.8801163e-05   4.5782841e-05   3.3440485e-05  -2.6656349e-04  -6.8358089e-05   3.0446398e-05   1.8807112e-04   4.9423448e-05  -9.1239637e-05  -5.8717021e-05   3.3212092e-05   3.8409303e-04   3.3485064e-04   1.9363263e-04   7.7995696e-05   1.8848001e-04   9.7566799e-05   4.3588084e-04   1.9278736e-04   1.4292509e-04   7.5008108e-05  -5.4653106e-06  -1.2019716e-04  -6.0765168e-05  -5.5884945e-05  -1.0902751e-04   0.0000000e+00   4.7018420e-06   1.2591264e-04   2.0666723e-05  -2.4440557e-04  -2.2475614e-04  -4.9105466e-08   1.8189822e-05   2.7941149e-06  -1.6711634e-04  -2.2661758e-04  -2.2489356e-04  -9.7526717e-05   4.5866708e-06   3.5847040e-05   1.9903815e-04   1.7434720e-04   2.1605658e-04   2.2954556e-04  -1.5612965e-04  -2.3539966e-04   1.2300099e-05  -5.7423570e-05  -1.7606835e-04   8.9807526e-05  -1.8895771e-04   8.2662808e-05   7.9596178e-05  -2.4894872e-04   4.5833908e-05   5.7812721e-05  -1.0593737e-04   1.1006027e-04   2.0622136e-04  -7.7722047e-05  -3.5711890e-04  -2.1037260e-04  -2.3529583e-05   0.0000000e+00   1.2955927e-04   3.7417455e-04   1.8981510e-04  -1.7887385e-04  -2.4699129e-04   1.7710731e-04   1.6220100e-04   1.9497447e-05  -6.3854153e-05  -4.7990428e-05  -1.5341080e-04   1.8699233e-05   2.2478198e-04   2.1516719e-04  -2.5751505e-04   7.5734558e-05   1.1253267e-04   1.8271167e-04  -9.5489575e-04  -2.7986055e-04  -5.7051822e-04  -4.1730146e-04  -2.2669089e-03  -2.8391504e-03  -7.6067620e-04  -6.7517994e-04  -9.5116173e-04  -1.1800341e-03  -1.7666407e-03  -1.1597667e-03  -1.2636684e-03  -7.3386835e-04   2.9094166e-05  -5.0998181e-04  -9.9206362e-04  -7.4595624e-04  -5.8929415e-04   0.0000000e+00  -4.6752390e-04   4.6350401e-05   1.6420779e-05  -4.2656372e-04  -1.8048857e-04   1.3718380e-04  -6.5306876e-05  -2.5932557e-04  -5.5312162e-04  -7.2769115e-04  -6.5324159e-04  -2.1232380e-04  -1.2809565e-04  -3.3875320e-04  -1.1817003e-03  -1.0166097e-03   1.7867391e-04  -2.5361348e-04   4.0776723e-04   2.2619054e-04   1.1949989e-04   3.4489147e-05   9.7509529e-04   8.4255210e-04   8.4919496e-04   1.8311595e-04   3.2362823e-04   1.5146492e-04   6.2565324e-04   8.5284432e-04   7.1346343e-04   6.5728651e-04   1.2909649e-04   2.2028917e-04   1.7728628e-04   1.8249579e-04   1.9114903e-04   0.0000000e+00   2.3569849e-04   1.2101280e-04   6.3339092e-05   1.1126195e-04  -8.9166912e-05  -6.2124735e-05   1.9811902e-04   1.0032129e-04   4.3925459e-04   6.1942590e-05   2.5137490e-04   1.6497520e-04   1.4171928e-05   1.8580686e-04   3.0684635e-04   2.9402588e-04   2.9835174e-04   4.2738576e-05  -8.0229539e-05   1.4650761e-04   1.8596566e-05   1.1375743e-04  -2.6942717e-04  -2.4463712e-04  -1.0556353e-04  -1.7294214e-05   2.0492990e-04   2.6606905e-04  -2.0343190e-04  -1.7743279e-04   5.3583899e-05   6.0851982e-05   1.4526923e-04   9.6149000e-05   5.4573399e-04   2.7031861e-04   4.3972941e-04   0.0000000e+00   1.6783781e-04  -7.1355651e-05   1.7399567e-05   1.7786614e-04   1.1912854e-04  -5.2540518e-05   6.6020749e-05   1.9526064e-05   6.2317412e-04   4.1747661e-04   3.5314012e-04   2.2436581e-05   1.2576240e-04   1.7351097e-04   4.3612332e-07   7.8601815e-05
  -2.9367709e-05   6.0317338e-05   6.7243036e-06   1.1317554e-04   4.0752136e-05   1.1336113e-04   1.0055749e-04   8.3320595e-06   5.3918666e-05   2.3976852e-05   1.0996269e-04   2.6186820e-04   2.3553002e-05   1.5215981e-05   7.1792775e-06   3.2810266e-06  -2.6483686e-05   1.5637489e-04   3.2296145e-04   2.9500316e-04   2.5776398e-04   0.0000000e+00   1.4412922e-04   7.9720323e-05  -1.5393095e-05   2.9232263e-04   2.7239396e-04   5.0399540e-05  -2.4572119e-05  -2.4665663e-05  -1.8857794e-05   2.6462113e-04   2.9804532e-04   6.6558376e-05   7.3965968e-05  -7.6666611e-06   3.2609531e-05   7.6742216e-06   1.8517638e-04  -2.2057192e-04  -1.0178908e-04  -1.8114930e-04   9.1424678e-06  -2.4792944e-05  -9.4137762e-04  -6.5080002e-04  -3.4000185e-04   2.4550124e-04   9.1937465e-05  -2.1739399e-04  -3.0766837e-04  -4.0303348e-05  -2.6940577e-04  -2.8344998e-05   1.7583261e-04  -1.4866873e-04  -4.8144440e-04  -2.1546665e-04  -8.1302690e-06   0.0000000e+00   1.2277420e-04  -2.3570100e-04   1.5237489e-04   1.6917192e-05  -1.7297576e-04   1.2109410e-04   1.8121404e-04   1.6118686e-04   1.7249457e-04  -4.9009027e-05  -1.1167107e-04   4.9007080e-05   3.9405928e-05   2.6797182e-04  -3.1389568e-04   2.5267696e-05   1.5950941e-04   9.8579590e-05   2.3587713e-05   5.2863397e-05   2.1669597e-06   2.1186201e-05  -7.6532358e-05  -1.0745531e-04  -7.5078664e-05  -2.5358010e-05   1.2887042e-04   7.7290179e-05  -1.4803510e-04  -2.4822068e-04  -8.5722888e-05   1.0961518e-04  -5.6850912e-05   1.2031460e-04   1.1708082e-04  -4.6513815e-05  -4.6794492e-05   0.0000000e+00  -1.6545076e-04  -1.5199262e-05   3.7482875e-05  -9.1409126e-05  -3.9262236e-05   2.0360657e-05  -3.9442634e-05   8.4950278e-05  -1.6406347e-04   6.7384341e-06   1.9884237e-05  -7.1922453e-06  -2.6645219e-05   7.9975611e-05  -1.8694669e-04  -2.1598469e-04  -6.7679197e-05   1.6566270e-05  -2.7964451e-05  -3.8258086e-05  -9.4756204e-05  -6.6960196e-05   3.1549953e-04   2.5261984e-04   4.7651958e-05  -6.5259052e-05  -7.8683294e-05  -1.0553572e-04   2.3501202e-04   1.6376617e-04   1.0361896e-05  -4.2672246e-05  -1.9340886e-05  -1.1469533e-04  -2.0618081e-04  -1.3518332e-04  -9.2262921e-05   0.0000000e+00  -2.6792539e-05  -1.6872260e-04  -1.0883028e-04  -8.7237070e-05  -1.6605276e-04  -1.0708221e-04  -9.8867067e-05  -4.7033591e-05  -8.5115581e-05  -1.1381312e-04  -2.2383806e-04  -5.8593314e-05  -1.5526578e-04  -4.9611556e-05   3.5557652e-04  -7.4352607e-06  -7.9197424e-05   6.9485390e-04  -2.5569081e-04  -2.3034038e-04  -9.1903919e-06   1.6371706e-04  -1.5226165e-04  -1.4696130e-04  -1.4426139e-04  -1.6995497e-04  -1.8703418e-05   2.5080772e-04  -8.2533761e-06  -9.4402330e-05   1.9095648e-05  -5.2621797e-05  -1.0899807e-05   1.9818463e-04   4.3288947e-04   2.3464358e-04   1.5160823e-04   0.0000000e+00  -1.0189532e-05   5.2812535e-04   2.1731013e-04   2.2096139e-04   4.4985405e-04   1.1131146e-04   4.4217145e-05  -1.1058130e-05  -2.6005263e-04   2.8351283e-04   2.4756726e-04   3.4982529e-05   2.6811849e-04  -1.5629119e-05  -1.1579556e-04  -2.3575535e-04  -9.6132425e-06  -2.6183925e-06  -6.6372381e-05   1.8130976e-05  -2.7964073e-05   1.7660813e-05  -3.5417819e-05   7.5881738e-05  -7.7135818e-05   7.9138859e-06   2.5396498e-06  -1.5552688e-05   4.5170905e-05  -4.7251418e-05  -6.6741689e-05   3.8147416e-05   1.1783564e-04  -1.3352296e-05  -1.1002591e-04  -4.5958110e-05  -1.3998979e-05   0.0000000e+00  -1.6145585e-05   2.7953187e-05   1.3722347e-05  -1.8571878e-05   1.1265387e-05   3.4876600e-05   2.3399650e-05  -2.1087200e-05  -8.2085614e-05  -3.4257896e-05  -2.4456399e-05   1.6782368e-05   4.1558584e-05   3.3088108e-05  -2.5815731e-04  -6.4221875e-05   3.0945369e-05   1.8858178e-04   4.7097529e-05  -1.0288300e-04  -7.7372190e-05   1.6231244e-05   4.1606105e-04   3.8204891e-04   1.7416906e-04   5.8798605e-05   1.4027435e-04   4.1828234e-05   4.7766646e-04   2.1079620e-04   1.2525262e-04   4.8839839e-05  -2.5608972e-05  -1.5538809e-04  -9.7689234e-05  -9.2802535e-05  -1.3992181e-04   0.0000000e+00  -2.6504749e-05   1.1701469e-04   7.6680499e-06  -2.7335709e-04  -2.4835168e-04  -1.9720450e-05   8.6191352e-06  -5.4301373e-06  -1.8702056e-04  -2.4349719e-04  -2.5279431e-04  -1.0142443e-04  -1.7557935e-05   3.0567223e-05   1.9098081e-04   1.8172627e-04   2.0510778e-04   2.2164771e-04  -1.4728085e-04  -2.4517035e-04   1.8388504e-05  -6.3452062e-05  -1.5879681e-04   9.9707626e-05  -1.7735832e-04   8.2127631e-05   7.6901593e-05  -2.6123719e-04   5.5351498e-05   6.5746143e-05  -9.9234160e-05   1.1222539e-04   2.0469487e-04  -8.4701822e-05  -3.7115296e-04  -2.2589516e-04  -6.9378781e-05   0.0000000e+00   1.0217436e-04   3.7553561e-04   2.0381185e-04  -1.8556167e-04  -2.5242362e-04   1.8661478e-04   1.6279885e-04   3.0966690e-05  -5.3891425e-05  -9.4191459e-05  -1.8005447e-04   1.4453016e-05   2.2114647e-04   2.0588324e-04  -2.3383567e-04   8.8072015e-05   1.4534335e-04   2.5872872e-04  -9.0578117e-04  -2.0495715e-04  -5.9402306e-04  -4.2719496e-04  -2.3233983e-03  -2.8926350e-03  -7.4516276e-04  -6.3620503e-04  -9.4728888e-04  -1.2363382e-03  -1.8059467e-03  -1.2114744e-03  -1.2743029e-03  -7.1462621e-04   5.4207584e-05  -5.6372351e-04  -1.1165207e-03  -7.8274849e-04  -5.6821728e-04   0.0000000e+00  -4.4710398e-04   9.3372151e-05   3.2960020e-05  -4.4987673e-04  -2.6170927e-04   1.4045632e-04  -6.3534598e-05  -2.4216145e-04  -5.7726089e-04  -7.4286819e-04  -7.4257909e-04  -2.1687820e-04  -1.0234228e-04  -3.1363584e-04  -1.1844614e-03  -1.0244492e-03   2.2727409e-04  -2.8814839e-04   4.3754341e-04   2.4499487e-04   1.3083249e-04  -3.1864331e-06   9.7092732e-04   8.3406035e-04   8.7161766e-04   2.0886192e-04   3.2868985e-04   9.2658065e-05   6.1750304e-04   8.6833167e-04   7.3620116e-04   6.9338290e-04   1.3210053e-04   2.2582352e-04   1.3759415e-04   1.4897597e-04   1.7033779e-04   0.0000000e+00   2.6244298e-04   1.0697836e-04   4.8342715e-05   1.0031969e-04  -1.2679537e-04  -7.4599378e-05   2.1489541e-04   1.1187343e-04   5.1922131e-04   2.2022374e-05   2.5418977e-04   1.7311223e-04  -2.0362204e-05   1.9193490e-04   3.1647502e-04   3.0801801e-04   3.0718923e-04   4.0874170e-05  -7.4587419e-05   1.5154627e-04   2.3238041e-05   1.1242865e-04  -2.7739361e-04  -2.6423368e-04  -1.0505781e-04  -1.5477132e-05   2.2018766e-04   2.7609754e-04  -2.0725836e-04  -1.8768054e-04   4.4550070e-05   3.6517854e-05   1.2528529e-04   1.2459709e-04   5.5951020e-04   2.7339713e-04   3.8746203e-04   0.0000000e+00   1.4251607e-04  -5.7573867e-05   2.6262764e-05   1.2691486e-04   1.2152041e-04  -6.2036367e-05   7.3872137e-05   2.1788978e-05   6.3990293e-04   3.7918269e-04   3.3158503e-04   3.7750537e-05   1.2615522e-04   1.7451438e-04   2.0748283e-05   9.2492440e-05
