   5.7480320e-05   1.5904310e-04   1.3959027e-05  -3.2656728e-05  -2.6222630e-05   0.0000000e+00   1.0375068e-04   0.0000000e+00   6.2265772e-05  -1.3790049e-05   0.0000000e+00   0.0000000e+00   2.7839568e-04   0.0000000e+00   0.0000000e+00   1.4047245e-05   0.0000000e+00   0.0000000e+00   0.0000000e+00   8.0636916e-05   4.0138960e-05  -9.1259430e-06   6.4280177e-05   4.3333977e-06  -3.1562650e-05   4.0466216e-05   0.0000000e+00   3.6801669e-05   5.1506847e-05   0.0000000e+00   8.5723660e-05   0.0000000e+00   0.0000000e+00   0.0000000e+00   0.0000000e+00   0.0000000e+00   0.0000000e+00   0.0000000e+00  -1.1946556e-04  -1.7922489e-04  -8.7659503e-05  -4.8779245e-05  -1.2607939e-04   0.0000000e+00   9.0168346e-06   0.0000000e+00  -4.7459298e-05  -1.1755494e-04   0.0000000e+00   0.0000000e+00   1.5659694e-04   0.0000000e+00   0.0000000e+00  -1.9208822e-04   0.0000000e+00   0.0000000e+00   0.0000000e+00  -1.9750410e-05  -2.2842227e-05  -4.2291120e-05   7.2235013e-06  -3.4285885e-06  -5.7152222e-05   7.7667710e-06   0.0000000e+00   9.0499351e-06  -6.6513026e-05   0.0000000e+00  -7.2882927e-05   0.0000000e+00   0.0000000e+00   0.0000000e+00   0.0000000e+00   0.0000000e+00   0.0000000e+00   0.0000000e+00   2.1083373e-04   1.9009112e-04  -1.5392258e-04   2.1872856e-04   9.8834086e-06   0.0000000e+00   1.4204380e-04   0.0000000e+00  -1.7323999e-04   1.9934882e-04   0.0000000e+00   0.0000000e+00   1.6169496e-04   0.0000000e+00   0.0000000e+00  -2.6646516e-05   0.0000000e+00   0.0000000e+00   0.0000000e+00   9.7255397e-06  -1.5178108e-05   2.1513985e-04   1.9231027e-04   1.6965997e-04  -1.4895641e-05  -3.1246176e-05   0.0000000e+00   2.6148909e-04   1.5467258e-04   0.0000000e+00   1.2311299e-04   0.0000000e+00   0.0000000e+00   0.0000000e+00   0.0000000e+00   0.0000000e+00   0.0000000e+00   0.0000000e+00  -2.9544489e-05  -3.9489250e-06   4.2374167e-05  -1.6430978e-04  -4.9307930e-05   0.0000000e+00  -5.0476075e-05   0.0000000e+00   9.9489756e-05  -2.3712262e-06   0.0000000e+00   0.0000000e+00  -7.0402089e-06   0.0000000e+00   0.0000000e+00   2.0065785e-04   0.0000000e+00   0.0000000e+00   0.0000000e+00  -5.3309005e-06   8.6623911e-07  -1.4684539e-05  -2.5643631e-06  -5.8594962e-06  -3.9312179e-05   2.9663643e-05   0.0000000e+00   2.2391614e-06   1.0288200e-05   0.0000000e+00   4.6211399e-07   0.0000000e+00   0.0000000e+00   0.0000000e+00   0.0000000e+00   0.0000000e+00   0.0000000e+00   0.0000000e+00   4.4265936e-05  -2.4922507e-05  -3.9816920e-05  -3.5441502e-05  -8.3706994e-06   0.0000000e+00   1.9075785e-04   0.0000000e+00  -6.7352588e-05  -1.4408427e-04   0.0000000e+00   0.0000000e+00   1.7561154e-04   0.0000000e+00   0.0000000e+00  -1.7132749e-04   0.0000000e+00   0.0000000e+00   0.0000000e+00  -5.3979226e-05   1.2139433e-04   4.5503548e-05   8.5069392e-05  -3.5898718e-05   1.0593021e-05   1.3219994e-04   0.0000000e+00  -4.6588907e-05  -5.9747919e-05   0.0000000e+00  -2.5191383e-05   0.0000000e+00   0.0000000e+00   0.0000000e+00   0.0000000e+00   0.0000000e+00   0.0000000e+00   0.0000000e+00   9.2528497e-05  -1.1436478e-04  -3.1120822e-05   9.6189221e-06   4.5374924e-05   0.0000000e+00   1.2158353e-04   0.0000000e+00  -9.1841992e-05  -1.0909726e-04   0.0000000e+00   0.0000000e+00   3.6617572e-04   0.0000000e+00   0.0000000e+00  -2.0595063e-04   0.0000000e+00   0.0000000e+00   0.0000000e+00   3.2875537e-05   3.8025491e-05   1.7428214e-04  -2.7862267e-05   3.6830967e-06   9.3763147e-05  -9.5249369e-06   0.0000000e+00  -4.3649571e-05  -1.7182351e-04   0.0000000e+00   2.7880869e-05   0.0000000e+00   0.0000000e+00   0.0000000e+00   0.0000000e+00   0.0000000e+00   0.0000000e+00   0.0000000e+00  -5.5270546e-05  -2.3352942e-04  -1.1998087e-04  -2.3834611e-04   1.6036421e-04   0.0000000e+00  -8.2197056e-05   0.0000000e+00  -1.6283743e-04  -1.1173064e-04   0.0000000e+00   0.0000000e+00   1.9432995e-04   0.0000000e+00   0.0000000e+00  -3.0737091e-04   0.0000000e+00   0.0000000e+00   0.0000000e+00  -7.0189520e-05  -1.3380703e-04   2.9379328e-04  -6.6516923e-05  -1.1410355e-04   1.8091919e-04  -1.9017290e-04   0.0000000e+00  -2.6376427e-04  -3.2201399e-04   0.0000000e+00   2.0832724e-05   0.0000000e+00   0.0000000e+00   0.0000000e+00   0.0000000e+00   0.0000000e+00   0.0000000e+00   0.0000000e+00  -1.7356596e-05  -7.0439105e-05  -8.8124393e-05  -1.4026553e-04  -1.2236457e-05   0.0000000e+00   6.7857371e-05   0.0000000e+00  -2.3317673e-05  -8.4163197e-05   0.0000000e+00   0.0000000e+00   1.4611758e-04   0.0000000e+00   0.0000000e+00  -2.7368778e-04   0.0000000e+00   0.0000000e+00   0.0000000e+00  -1.1659904e-05   6.8597505e-05   7.5566934e-05  -5.7530286e-06  -8.1148068e-05   3.5209730e-05  -2.1952208e-05   0.0000000e+00  -1.0285470e-04  -1.3980929e-04   0.0000000e+00  -8.0010127e-06   0.0000000e+00   0.0000000e+00   0.0000000e+00   0.0000000e+00   0.0000000e+00   0.0000000e+00   0.0000000e+00  -2.0625157e-04  -7.8508378e-05  -3.0518167e-04  -1.6163400e-04  -1.0216851e-05   0.0000000e+00   1.1569800e-04   0.0000000e+00  -1.7138005e-04   2.7821550e-05   0.0000000e+00   0.0000000e+00   7.1947715e-05   0.0000000e+00   0.0000000e+00  -6.3628962e-04   0.0000000e+00   0.0000000e+00   0.0000000e+00   6.9473385e-05  -3.1012149e-05  -1.7208496e-04  -8.9912593e-05  -1.6444468e-04  -7.3484345e-05   1.3071114e-04   0.0000000e+00   1.0542939e-04   1.2713434e-04   0.0000000e+00  -2.3334910e-04   0.0000000e+00   0.0000000e+00   0.0000000e+00   0.0000000e+00   0.0000000e+00   0.0000000e+00   0.0000000e+00  -1.9639652e-04   4.2605311e-06  -6.7198233e-05  -1.7496028e-04  -2.1732720e-04   0.0000000e+00  -1.1904663e-04   0.0000000e+00   3.9035126e-05   3.8152372e-05   0.0000000e+00   0.0000000e+00  -2.8680756e-05   0.0000000e+00   0.0000000e+00  -8.5286449e-05   0.0000000e+00   0.0000000e+00   0.0000000e+00  -1.0107604e-04   7.1327119e-05  -1.4881224e-04   5.0112658e-05  -4.4553045e-06  -6.9966981e-05   4.8128045e-05   0.0000000e+00  -8.5633607e-06  -5.3651002e-06   0.0000000e+00  -1.6950935e-04   0.0000000e+00   0.0000000e+00   0.0000000e+00   0.0000000e+00   0.0000000e+00   0.0000000e+00   0.0000000e+00  -7.6907909e-04  -7.4158229e-04  -5.0041290e-04  -7.7252075e-05  -6.6475727e-04   0.0000000e+00  -6.1291310e-04   0.0000000e+00  -9.2202565e-05   6.8138339e-04   0.0000000e+00   0.0000000e+00  -8.9351930e-04   0.0000000e+00   0.0000000e+00   9.6391076e-04   0.0000000e+00   0.0000000e+00   0.0000000e+00  -1.0893946e-03  -1.0584846e-03  -1.6185521e-03  -4.8200920e-04  -4.2333527e-04  -7.8297196e-04  -4.8248559e-04   0.0000000e+00   1.1452327e-04   2.1273415e-04   0.0000000e+00  -4.5142447e-04   0.0000000e+00   0.0000000e+00   0.0000000e+00   0.0000000e+00   0.0000000e+00   0.0000000e+00   0.0000000e+00
   5.6788597e-05   1.6772732e-04   6.5620491e-06  -5.6644525e-05  -3.2833233e-05   0.0000000e+00   1.0886950e-04   0.0000000e+00   6.6103937e-05  -2.2615510e-05   0.0000000e+00   0.0000000e+00   3.1782442e-04   0.0000000e+00   0.0000000e+00   8.9483315e-06   0.0000000e+00   0.0000000e+00   0.0000000e+00   8.6928765e-05   4.2632317e-05  -1.0067802e-05   6.7701406e-05  -5.9613045e-06  -4.0086943e-05   4.1854409e-05   0.0000000e+00   3.5386837e-05   5.1233437e-05   0.0000000e+00   9.2606566e-05   0.0000000e+00   0.0000000e+00   0.0000000e+00   0.0000000e+00   0.0000000e+00   0.0000000e+00   0.0000000e+00  -1.2573263e-04  -2.1610859e-04  -9.9160980e-05  -5.0878175e-05  -1.2339962e-04   0.0000000e+00   1.5967581e-05   0.0000000e+00  -5.9806715e-05  -1.2640890e-04   0.0000000e+00   0.0000000e+00   1.4213866e-04   0.0000000e+00   0.0000000e+00  -2.2137862e-04   0.0000000e+00   0.0000000e+00   0.0000000e+00  -2.6068469e-05  -2.6524176e-05  -2.7700938e-05   2.1934254e-06  -4.1686413e-07  -6.2319730e-05   7.3466991e-06   0.0000000e+00   9.1402062e-06  -7.3696514e-05   0.0000000e+00  -8.7903096e-05   0.0000000e+00   0.0000000e+00   0.0000000e+00   0.0000000e+00   0.0000000e+00   0.0000000e+00   0.0000000e+00   2.1483015e-04   2.4508379e-04  -1.1965154e-04   2.3925590e-04  -2.7002728e-06   0.0000000e+00   1.2542502e-04   0.0000000e+00  -1.9110752e-04   2.7360171e-04   0.0000000e+00   0.0000000e+00   7.1919193e-05   0.0000000e+00   0.0000000e+00   9.6016059e-06   0.0000000e+00   0.0000000e+00   0.0000000e+00   1.3594836e-05  -6.8493881e-05   1.9823786e-04   2.1914648e-04   2.1689846e-04   4.2787190e-06   4.0544789e-07   0.0000000e+00   3.5053273e-04   1.7510948e-04   0.0000000e+00   1.3804919e-04   0.0000000e+00   0.0000000e+00   0.0000000e+00   0.0000000e+00   0.0000000e+00   0.0000000e+00   0.0000000e+00  -4.0403205e-05  -3.8011144e-06   4.4254550e-05  -1.8163952e-04  -5.9077401e-05   0.0000000e+00  -7.2648798e-05   0.0000000e+00   1.1211408e-04   2.1033459e-06   0.0000000e+00   0.0000000e+00  -3.7178985e-05   0.0000000e+00   0.0000000e+00   2.2544903e-04   0.0000000e+00   0.0000000e+00   0.0000000e+00  -1.1340903e-05  -8.9053754e-06  -2.8329224e-05  -7.8758973e-06  -3.2339980e-06  -4.7858039e-05   3.1425556e-05   0.0000000e+00   4.2233564e-06   1.6984439e-05   0.0000000e+00  -4.3023064e-06   0.0000000e+00   0.0000000e+00   0.0000000e+00   0.0000000e+00   0.0000000e+00   0.0000000e+00   0.0000000e+00   5.0239814e-05  -3.3195912e-05  -3.9005527e-05  -3.7629841e-05  -8.1789161e-06   0.0000000e+00   2.1001501e-04   0.0000000e+00  -7.5689581e-05  -1.6100734e-04   0.0000000e+00   0.0000000e+00   1.5999016e-04   0.0000000e+00   0.0000000e+00  -1.8660145e-04   0.0000000e+00   0.0000000e+00   0.0000000e+00  -6.8585383e-05   1.3830043e-04   5.4341331e-05   9.2752024e-05  -3.7243400e-05   1.4537988e-05   1.4419197e-04   0.0000000e+00  -6.2428917e-05  -7.1131605e-05   0.0000000e+00  -3.3222093e-05   0.0000000e+00   0.0000000e+00   0.0000000e+00   0.0000000e+00   0.0000000e+00   0.0000000e+00   0.0000000e+00   9.9000686e-05  -1.4928701e-04  -2.9013630e-05   6.4374282e-06   5.1671699e-05   0.0000000e+00   1.2740641e-04   0.0000000e+00  -9.4239082e-05  -1.1383920e-04   0.0000000e+00   0.0000000e+00   3.6286287e-04   0.0000000e+00   0.0000000e+00  -2.1445227e-04   0.0000000e+00   0.0000000e+00   0.0000000e+00   2.8246092e-05   3.3600779e-05   2.0547914e-04  -4.0757997e-05   3.3903258e-06   9.7471891e-05  -2.0950976e-05   0.0000000e+00  -5.8147074e-05  -1.9239880e-04   0.0000000e+00   3.5513131e-05   0.0000000e+00   0.0000000e+00   0.0000000e+00   0.0000000e+00   0.0000000e+00   0.0000000e+00   0.0000000e+00  -6.0346957e-05  -2.6317923e-04  -1.1789429e-04  -2.5713874e-04   1.7043405e-04   0.0000000e+00  -1.0219918e-04   0.0000000e+00  -1.6010593e-04  -1.2879721e-04   0.0000000e+00   0.0000000e+00   1.0209803e-04   0.0000000e+00   0.0000000e+00  -3.0536545e-04   0.0000000e+00   0.0000000e+00   0.0000000e+00  -8.9178259e-05  -1.4184163e-04   3.0918345e-04  -7.9933132e-05  -1.2235914e-04   2.0037007e-04  -2.1090373e-04   0.0000000e+00  -3.0008072e-04  -3.5336462e-04   0.0000000e+00   4.6088247e-05   0.0000000e+00   0.0000000e+00   0.0000000e+00   0.0000000e+00   0.0000000e+00   0.0000000e+00   0.0000000e+00  -2.9454260e-05  -1.0203819e-04  -1.2590611e-04  -1.4525823e-04  -2.2089075e-05   0.0000000e+00   8.2366827e-05   0.0000000e+00  -4.9968115e-05  -9.1492934e-05   0.0000000e+00   0.0000000e+00   1.4920523e-04   0.0000000e+00   0.0000000e+00  -3.3475949e-04   0.0000000e+00   0.0000000e+00   0.0000000e+00  -2.8854504e-05   7.3497798e-05   7.9125354e-05  -8.3312517e-06  -9.5633966e-05   3.8159359e-05  -2.9810235e-05   0.0000000e+00  -1.1833791e-04  -1.7075343e-04   0.0000000e+00  -2.4462127e-05   0.0000000e+00   0.0000000e+00   0.0000000e+00   0.0000000e+00   0.0000000e+00   0.0000000e+00   0.0000000e+00  -2.1096141e-04  -9.0630007e-05  -3.1460076e-04  -1.5256005e-04  -2.2556439e-06   0.0000000e+00   1.4548659e-04   0.0000000e+00  -1.8972839e-04   2.7474428e-05   0.0000000e+00   0.0000000e+00   5.7921066e-05   0.0000000e+00   0.0000000e+00  -6.5075865e-04   0.0000000e+00   0.0000000e+00   0.0000000e+00   6.9257551e-05  -3.4813837e-05  -1.8936915e-04  -1.0237031e-04  -1.8230405e-04  -4.1865798e-05   1.2998881e-04   0.0000000e+00   1.1538680e-04   1.3513811e-04   0.0000000e+00  -2.4439095e-04   0.0000000e+00   0.0000000e+00   0.0000000e+00   0.0000000e+00   0.0000000e+00   0.0000000e+00   0.0000000e+00  -2.2195478e-04   3.2906405e-06  -7.9863032e-05  -1.9728692e-04  -2.3201831e-04   0.0000000e+00  -1.4531475e-04   0.0000000e+00   4.3909007e-05   4.5737475e-05   0.0000000e+00   0.0000000e+00  -8.5411785e-05   0.0000000e+00   0.0000000e+00  -9.9620499e-05   0.0000000e+00   0.0000000e+00   0.0000000e+00  -1.1498320e-04   8.6094579e-05  -1.6544393e-04   6.1707639e-05  -1.9127067e-05  -9.9576825e-05   6.2566130e-05   0.0000000e+00  -1.6834395e-05  -6.0978075e-07   0.0000000e+00  -1.6939702e-04   0.0000000e+00   0.0000000e+00   0.0000000e+00   0.0000000e+00   0.0000000e+00   0.0000000e+00   0.0000000e+00  -9.0424465e-04  -8.5917801e-04  -5.7106248e-04  -7.0691723e-05  -7.8931805e-04   0.0000000e+00  -6.4813061e-04   0.0000000e+00  -7.8367732e-05   8.1920630e-04   0.0000000e+00   0.0000000e+00  -1.1174519e-03   0.0000000e+00   0.0000000e+00   1.2359312e-03   0.0000000e+00   0.0000000e+00   0.0000000e+00  -1.2214031e-03  -1.1575304e-03  -1.9038342e-03  -5.3071241e-04  -4.9288522e-04  -9.2786777e-04  -5.0186078e-04   0.0000000e+00   1.3615912e-04   2.6039705e-04   0.0000000e+00  -5.5192001e-04   0.0000000e+00   0.0000000e+00   0.0000000e+00   0.0000000e+00   0.0000000e+00   0.0000000e+00   0.0000000e+00
   5.4042643e-05   1.7138655e-04  -3.0136444e-06  -8.3276806e-05  -3.9257204e-05   0.0000000e+00   1.1162047e-04   0.0000000e+00   6.7338953e-05  -3.2633062e-05   0.0000000e+00   0.0000000e+00   3.5443454e-04   0.0000000e+00   0.0000000e+00   5.6725050e-07   0.0000000e+00   0.0000000e+00   0.0000000e+00   9.1399236e-05   4.4442638e-05  -9.9693655e-06   6.9868856e-05  -1.8083926e-05  -4.7791086e-05   4.2064961e-05   0.0000000e+00   3.2221997e-05   4.7632430e-05   0.0000000e+00   9.6240287e-05   0.0000000e+00   0.0000000e+00   0.0000000e+00   0.0000000e+00   0.0000000e+00   0.0000000e+00   0.0000000e+00  -1.2727316e-04  -2.5229737e-04  -1.0927068e-04  -4.9769541e-05  -1.1446195e-04   0.0000000e+00   2.5473626e-05   0.0000000e+00  -7.2592070e-05  -1.3319202e-04   0.0000000e+00   0.0000000e+00   1.2336150e-04   0.0000000e+00   0.0000000e+00  -2.4866272e-04   0.0000000e+00   0.0000000e+00   0.0000000e+00  -3.2117646e-05  -3.0661647e-05  -8.9306623e-06  -4.0490570e-06   3.7214550e-06  -6.4038348e-05   5.6476557e-06   0.0000000e+00   9.1559104e-06  -8.0465956e-05   0.0000000e+00  -1.0317492e-04   0.0000000e+00   0.0000000e+00   0.0000000e+00   0.0000000e+00   0.0000000e+00   0.0000000e+00   0.0000000e+00   2.1545926e-04   3.0555166e-04  -6.6962607e-05   2.5653467e-04  -1.4251176e-05   0.0000000e+00   1.0511244e-04   0.0000000e+00  -1.9651758e-04   3.5287048e-04   0.0000000e+00   0.0000000e+00  -3.9561632e-05   0.0000000e+00   0.0000000e+00   6.2893630e-05   0.0000000e+00   0.0000000e+00   0.0000000e+00   2.1518703e-05  -1.2146343e-04   1.7688333e-04   2.4769428e-04   2.7108019e-04   3.5083494e-05   4.3811774e-05   0.0000000e+00   4.4324042e-04   1.9179683e-04   0.0000000e+00   1.5559216e-04   0.0000000e+00   0.0000000e+00   0.0000000e+00   0.0000000e+00   0.0000000e+00   0.0000000e+00   0.0000000e+00  -5.1758174e-05  -4.3599978e-06   4.4819770e-05  -1.9453511e-04  -6.7783299e-05   0.0000000e+00  -9.6232104e-05   0.0000000e+00   1.2168687e-04   8.8469178e-06   0.0000000e+00   0.0000000e+00  -7.1097579e-05   0.0000000e+00   0.0000000e+00   2.4663862e-04   0.0000000e+00   0.0000000e+00   0.0000000e+00  -1.7697941e-05  -1.9600338e-05  -4.3371846e-05  -1.4254771e-05  -3.0474008e-07  -5.6389346e-05   3.2594456e-05   0.0000000e+00   6.8713354e-06   2.4792135e-05   0.0000000e+00  -1.1578894e-05   0.0000000e+00   0.0000000e+00   0.0000000e+00   0.0000000e+00   0.0000000e+00   0.0000000e+00   0.0000000e+00   5.4938387e-05  -4.2338978e-05  -3.7020650e-05  -3.8829179e-05  -7.4092180e-06   0.0000000e+00   2.2554705e-04   0.0000000e+00  -8.3889132e-05  -1.7364925e-04   0.0000000e+00   0.0000000e+00   1.3703816e-04   0.0000000e+00   0.0000000e+00  -1.9940131e-04   0.0000000e+00   0.0000000e+00   0.0000000e+00  -8.3146235e-05   1.5223083e-04   6.2635327e-05   9.8636646e-05  -3.6008719e-05   1.9864677e-05   1.5295368e-04   0.0000000e+00  -7.7673636e-05  -8.2050818e-05   0.0000000e+00  -4.3370741e-05   0.0000000e+00   0.0000000e+00   0.0000000e+00   0.0000000e+00   0.0000000e+00   0.0000000e+00   0.0000000e+00   1.0336179e-04  -1.8435246e-04  -2.5510586e-05   2.8194822e-06   5.7797716e-05   0.0000000e+00   1.3037634e-04   0.0000000e+00  -9.4419001e-05  -1.1567093e-04   0.0000000e+00   0.0000000e+00   3.4483882e-04   0.0000000e+00   0.0000000e+00  -2.1833311e-04   0.0000000e+00   0.0000000e+00   0.0000000e+00   2.2173968e-05   2.7561811e-05   2.3433584e-04  -5.4660335e-05   1.6262497e-06   9.7186942e-05  -3.3514947e-05   0.0000000e+00  -7.2869727e-05  -2.0874131e-04   0.0000000e+00   4.3262804e-05   0.0000000e+00   0.0000000e+00   0.0000000e+00   0.0000000e+00   0.0000000e+00   0.0000000e+00   0.0000000e+00  -6.4338547e-05  -2.9068635e-04  -1.1068755e-04  -2.7228976e-04   1.7785886e-04   0.0000000e+00  -1.2289707e-04   0.0000000e+00  -1.5057335e-04  -1.4680625e-04   0.0000000e+00   0.0000000e+00  -8.6663288e-06   0.0000000e+00   0.0000000e+00  -2.9327069e-04   0.0000000e+00   0.0000000e+00   0.0000000e+00  -1.0793426e-04  -1.4800702e-04   3.1683983e-04  -9.5879013e-05  -1.2787401e-04   2.1606267e-04  -2.2972626e-04   0.0000000e+00  -3.3312045e-04  -3.7649827e-04   0.0000000e+00   7.5008545e-05   0.0000000e+00   0.0000000e+00   0.0000000e+00   0.0000000e+00   0.0000000e+00   0.0000000e+00   0.0000000e+00  -4.2507482e-05  -1.3424370e-04  -1.6657304e-04  -1.4439461e-04  -3.2063724e-05   0.0000000e+00   9.5195067e-05   0.0000000e+00  -8.1378135e-05  -9.7633670e-05   0.0000000e+00   0.0000000e+00   1.4563403e-04   0.0000000e+00   0.0000000e+00  -4.0040892e-04   0.0000000e+00   0.0000000e+00   0.0000000e+00  -4.7942095e-05   7.8151602e-05   7.9845118e-05  -9.6814771e-06  -1.0885306e-04   4.1058401e-05  -3.7677188e-05   0.0000000e+00  -1.3288229e-04  -2.0182030e-04   0.0000000e+00  -4.4020840e-05   0.0000000e+00   0.0000000e+00   0.0000000e+00   0.0000000e+00   0.0000000e+00   0.0000000e+00   0.0000000e+00  -2.0918553e-04  -1.0391602e-04  -3.1511716e-04  -1.3647888e-04   6.5593825e-06   0.0000000e+00   1.7720516e-04   0.0000000e+00  -2.0557662e-04   2.5409832e-05   0.0000000e+00   0.0000000e+00   4.4617065e-05   0.0000000e+00   0.0000000e+00  -6.4633265e-04   0.0000000e+00   0.0000000e+00   0.0000000e+00   6.6495394e-05  -3.8532346e-05  -2.0322074e-04  -1.1450451e-04  -1.9726941e-04  -3.9553882e-06   1.2291920e-04   0.0000000e+00   1.2129285e-04   1.3954650e-04   0.0000000e+00  -2.4585272e-04   0.0000000e+00   0.0000000e+00   0.0000000e+00   0.0000000e+00   0.0000000e+00   0.0000000e+00   0.0000000e+00  -2.4605820e-04   2.4863212e-06  -9.2565459e-05  -2.1803905e-04  -2.4174884e-04   0.0000000e+00  -1.7727068e-04   0.0000000e+00   4.8705477e-05   5.2587595e-05   0.0000000e+00   0.0000000e+00  -1.5700402e-04   0.0000000e+00   0.0000000e+00  -1.0962886e-04   0.0000000e+00   0.0000000e+00   0.0000000e+00  -1.2936743e-04   1.0096698e-04  -1.8255524e-04   7.4069461e-05  -3.7271007e-05  -1.3238770e-04   7.7796022e-05   0.0000000e+00  -2.6926797e-05   5.9828935e-06   0.0000000e+00  -1.6669440e-04   0.0000000e+00   0.0000000e+00   0.0000000e+00   0.0000000e+00   0.0000000e+00   0.0000000e+00   0.0000000e+00  -1.0345610e-03  -9.7597965e-04  -6.3472046e-04  -6.3746108e-05  -9.1034959e-04   0.0000000e+00  -6.6487701e-04   0.0000000e+00  -5.7194292e-05   9.4817905e-04   0.0000000e+00   0.0000000e+00  -1.3455715e-03   0.0000000e+00   0.0000000e+00   1.5206050e-03   0.0000000e+00   0.0000000e+00   0.0000000e+00  -1.3296634e-03  -1.2261200e-03  -2.1747332e-03  -5.6931565e-04  -5.6296899e-04  -1.0694225e-03  -5.0728861e-04   0.0000000e+00   1.5001541e-04   3.0879103e-04   0.0000000e+00  -6.5259509e-04   0.0000000e+00   0.0000000e+00   0.0000000e+00   0.0000000e+00   0.0000000e+00   0.0000000e+00   0.0000000e+00
   4.9491695e-05   1.6987146e-04  -1.4488933e-05  -1.1160789e-04  -4.5239048e-05   0.0000000e+00   1.1209421e-04   0.0000000e+00   6.5746051e-05  -4.3556109e-05   0.0000000e+00   0.0000000e+00   3.8700127e-04   0.0000000e+00   0.0000000e+00  -1.1269039e-05   0.0000000e+00   0.0000000e+00   0.0000000e+00   9.3997119e-05   4.5650161e-05  -8.5790193e-06   7.0811888e-05  -3.1572449e-05  -5.4274969e-05   4.1175412e-05   0.0000000e+00   2.7444492e-05   4.0619423e-05   0.0000000e+00   9.6294643e-05   0.0000000e+00   0.0000000e+00   0.0000000e+00   0.0000000e+00   0.0000000e+00   0.0000000e+00   0.0000000e+00  -1.2367577e-04  -2.8611841e-04  -1.1769849e-04  -4.4877987e-05  -9.9471926e-05   0.0000000e+00   3.7941058e-05   0.0000000e+00  -8.5417984e-05  -1.3766397e-04   0.0000000e+00   0.0000000e+00   1.0226955e-04   0.0000000e+00   0.0000000e+00  -2.7318540e-04   0.0000000e+00   0.0000000e+00   0.0000000e+00  -3.7500110e-05  -3.5123816e-05   1.3299053e-05  -1.1163364e-05   9.4041098e-06  -6.1600653e-05   2.7897432e-06   0.0000000e+00   9.4522944e-06  -8.6676028e-05   0.0000000e+00  -1.1841499e-04   0.0000000e+00   0.0000000e+00   0.0000000e+00   0.0000000e+00   0.0000000e+00   0.0000000e+00   0.0000000e+00   2.1350592e-04   3.6823857e-04   1.5894281e-06   2.6925490e-04  -2.4782222e-05   0.0000000e+00   8.5180970e-05   0.0000000e+00  -1.8687711e-04   4.3236294e-04   0.0000000e+00   0.0000000e+00  -1.6592918e-04   0.0000000e+00   0.0000000e+00   1.3270295e-04   0.0000000e+00   0.0000000e+00   0.0000000e+00   3.3980294e-05  -1.6729993e-04   1.5437129e-04   2.7858727e-04   3.2989501e-04   7.6710877e-05   9.8802545e-05   0.0000000e+00   5.3311800e-04   2.0339985e-04   0.0000000e+00   1.7576147e-04   0.0000000e+00   0.0000000e+00   0.0000000e+00   0.0000000e+00   0.0000000e+00   0.0000000e+00   0.0000000e+00  -6.3082846e-05  -5.9098831e-06   4.4131525e-05  -2.0235475e-04  -7.4821836e-05   0.0000000e+00  -1.2022689e-04   0.0000000e+00   1.2754116e-04   1.7879524e-05   0.0000000e+00   0.0000000e+00  -1.0675487e-04   0.0000000e+00   0.0000000e+00   2.6336771e-04   0.0000000e+00   0.0000000e+00   0.0000000e+00  -2.3989789e-05  -3.0549058e-05  -5.8965654e-05  -2.1479875e-05   2.7719752e-06  -6.4509975e-05   3.3187887e-05   0.0000000e+00   1.0174024e-05   3.3482686e-05   0.0000000e+00  -2.1536079e-05   0.0000000e+00   0.0000000e+00   0.0000000e+00   0.0000000e+00   0.0000000e+00   0.0000000e+00   0.0000000e+00   5.8009574e-05  -5.2303188e-05  -3.3922671e-05  -3.8832758e-05  -6.1086169e-06   0.0000000e+00   2.3679228e-04   0.0000000e+00  -9.1840826e-05  -1.8127200e-04   0.0000000e+00   0.0000000e+00   1.0808974e-04   0.0000000e+00   0.0000000e+00  -2.0916345e-04   0.0000000e+00   0.0000000e+00   0.0000000e+00  -9.7306026e-05   1.6203874e-04   6.9779441e-05   1.0234010e-04  -3.1843727e-05   2.6557087e-05   1.5800996e-04   0.0000000e+00  -9.1464226e-05  -9.2168110e-05   0.0000000e+00  -5.5499250e-05   0.0000000e+00   0.0000000e+00   0.0000000e+00   0.0000000e+00   0.0000000e+00   0.0000000e+00   0.0000000e+00   1.0567110e-04  -2.1790522e-04  -2.0709229e-05  -8.5958133e-07   6.3670508e-05   0.0000000e+00   1.3089880e-04   0.0000000e+00  -9.2654372e-05  -1.1472879e-04   0.0000000e+00   0.0000000e+00   3.1360273e-04   0.0000000e+00   0.0000000e+00  -2.1784167e-04   0.0000000e+00   0.0000000e+00   0.0000000e+00   1.5084008e-05   2.0431465e-05   2.5958655e-04  -6.8969069e-05  -1.8279378e-06   9.2956717e-05  -4.6585832e-05   0.0000000e+00  -8.7103958e-05  -2.2020303e-04   0.0000000e+00   5.0860229e-05   0.0000000e+00   0.0000000e+00   0.0000000e+00   0.0000000e+00   0.0000000e+00   0.0000000e+00   0.0000000e+00  -6.7178842e-05  -3.1610770e-04  -9.9136567e-05  -2.8408388e-04   1.8333606e-04   0.0000000e+00  -1.4347738e-04   0.0000000e+00  -1.3533405e-04  -1.6628677e-04   0.0000000e+00   0.0000000e+00  -1.3104958e-04   0.0000000e+00   0.0000000e+00  -2.7361480e-04   0.0000000e+00   0.0000000e+00   0.0000000e+00  -1.2545608e-04  -1.5283875e-04   3.1778520e-04  -1.1469429e-04  -1.3061918e-04   2.2787301e-04  -2.4677775e-04   0.0000000e+00  -3.6223154e-04  -3.9083045e-04   0.0000000e+00   1.0606345e-04   0.0000000e+00   0.0000000e+00   0.0000000e+00   0.0000000e+00   0.0000000e+00   0.0000000e+00   0.0000000e+00  -5.5738909e-05  -1.6567974e-04  -2.0830338e-04  -1.3734770e-04  -4.1283641e-05   0.0000000e+00   1.0555030e-04   0.0000000e+00  -1.1645200e-04  -1.0276107e-04   0.0000000e+00   0.0000000e+00   1.3542553e-04   0.0000000e+00   0.0000000e+00  -4.6861761e-04   0.0000000e+00   0.0000000e+00   0.0000000e+00  -6.7937734e-05   8.2600036e-05   7.7924348e-05  -9.8303006e-06  -1.2009241e-04   4.4040707e-05  -4.5227515e-05   0.0000000e+00  -1.4606599e-04  -2.3203665e-04   0.0000000e+00  -6.5997694e-05   0.0000000e+00   0.0000000e+00   0.0000000e+00   0.0000000e+00   0.0000000e+00   0.0000000e+00   0.0000000e+00  -2.0154650e-04  -1.1893811e-04  -3.0743275e-04  -1.1442696e-04   1.5352115e-05   0.0000000e+00   2.0956548e-04   0.0000000e+00  -2.1873297e-04   2.1204881e-05   0.0000000e+00   0.0000000e+00   3.3275011e-05   0.0000000e+00   0.0000000e+00  -6.2515548e-04   0.0000000e+00   0.0000000e+00   0.0000000e+00   6.1091191e-05  -4.2387818e-05  -2.1334529e-04  -1.2640842e-04  -2.0938574e-04   3.7843271e-05   1.0917759e-04   0.0000000e+00   1.2240740e-04   1.4028078e-04   0.0000000e+00  -2.3746951e-04   0.0000000e+00   0.0000000e+00   0.0000000e+00   0.0000000e+00   0.0000000e+00   0.0000000e+00   0.0000000e+00  -2.6838023e-04   1.8302278e-06  -1.0498448e-04  -2.3673388e-04  -2.4664467e-04   0.0000000e+00  -2.1543243e-04   0.0000000e+00   5.3406798e-05   5.8586016e-05   0.0000000e+00   0.0000000e+00  -2.4149585e-04   0.0000000e+00   0.0000000e+00  -1.1404167e-04   0.0000000e+00   0.0000000e+00   0.0000000e+00  -1.4442365e-04   1.1546613e-04  -2.0051468e-04   8.6855256e-05  -5.8306376e-05  -1.6726560e-04   9.3334349e-05   0.0000000e+00  -3.8618092e-05   1.4184129e-05   0.0000000e+00  -1.6330436e-04   0.0000000e+00   0.0000000e+00   0.0000000e+00   0.0000000e+00   0.0000000e+00   0.0000000e+00   0.0000000e+00  -1.1564556e-03  -1.0909395e-03  -6.9023372e-04  -5.7663407e-05  -1.0252050e-03   0.0000000e+00  -6.6211419e-04   0.0000000e+00  -2.9767868e-05   1.0615116e-03   0.0000000e+00   0.0000000e+00  -1.5690053e-03   0.0000000e+00   0.0000000e+00   1.8074105e-03   0.0000000e+00   0.0000000e+00   0.0000000e+00  -1.4106414e-03  -1.2611581e-03  -2.4238100e-03  -5.9722403e-04  -6.3360530e-04  -1.2046995e-03  -4.9977682e-04   0.0000000e+00   1.5368512e-04   3.5666751e-04   0.0000000e+00  -7.4993099e-04   0.0000000e+00   0.0000000e+00   0.0000000e+00   0.0000000e+00   0.0000000e+00   0.0000000e+00   0.0000000e+00
   4.3450716e-05   1.6325607e-04  -2.7501770e-05  -1.4063687e-04  -5.0572323e-05   0.0000000e+00   1.1041852e-04   0.0000000e+00   6.1241776e-05  -5.5058450e-05   0.0000000e+00   0.0000000e+00   4.1440432e-04   0.0000000e+00   0.0000000e+00  -2.6545421e-05   0.0000000e+00   0.0000000e+00   0.0000000e+00   9.4739091e-05   4.6335863e-05  -5.7315480e-06   7.0555085e-05  -4.5920816e-05  -5.9268944e-05   3.9302138e-05   0.0000000e+00   2.1272962e-05   3.0329044e-05   0.0000000e+00   9.2646323e-05   0.0000000e+00   0.0000000e+00   0.0000000e+00   0.0000000e+00   0.0000000e+00   0.0000000e+00   0.0000000e+00  -1.1475444e-04  -3.1594323e-04  -1.2421860e-04  -3.5771813e-05  -7.8912257e-05   0.0000000e+00   5.3659980e-05   0.0000000e+00  -9.7873786e-05  -1.3953864e-04   0.0000000e+00   0.0000000e+00   8.0730516e-05   0.0000000e+00   0.0000000e+00  -2.9426780e-04   0.0000000e+00   0.0000000e+00   0.0000000e+00  -4.1847017e-05  -3.9684912e-05   3.8099100e-05  -1.8716173e-05   1.7066746e-05  -5.4528102e-05  -9.4945510e-07   0.0000000e+00   1.0422086e-05  -9.2156966e-05   0.0000000e+00  -1.3333689e-04   0.0000000e+00   0.0000000e+00   0.0000000e+00   0.0000000e+00   0.0000000e+00   0.0000000e+00   0.0000000e+00   2.0966480e-04   4.2915929e-04   8.1726127e-05   2.7598324e-04  -3.4875430e-05   0.0000000e+00   7.0183708e-05   0.0000000e+00  -1.6046154e-04   5.0666595e-04   0.0000000e+00   0.0000000e+00  -2.9934341e-04   0.0000000e+00   0.0000000e+00   2.1714911e-04   0.0000000e+00   0.0000000e+00   0.0000000e+00   5.1056471e-05  -1.9904621e-04   1.3400501e-04   3.1235551e-04   3.9016445e-04   1.2719770e-04   1.6459063e-04   0.0000000e+00   6.1295749e-04   2.0883745e-04   0.0000000e+00   1.9794126e-04   0.0000000e+00   0.0000000e+00   0.0000000e+00   0.0000000e+00   0.0000000e+00   0.0000000e+00   0.0000000e+00  -7.3843314e-05  -8.6778612e-06   4.2340715e-05  -2.0470264e-04  -7.9671085e-05   0.0000000e+00  -1.4365476e-04   0.0000000e+00   1.2923496e-04   2.9079863e-05   0.0000000e+00   0.0000000e+00  -1.4198765e-04   0.0000000e+00   0.0000000e+00   2.7497545e-04   0.0000000e+00   0.0000000e+00   0.0000000e+00  -2.9810175e-05  -4.1108524e-05  -7.4208577e-05  -2.9273575e-05   5.8537398e-06  -7.1806209e-05   3.3246045e-05   0.0000000e+00   1.4064542e-05   4.2755120e-05   0.0000000e+00  -3.4196508e-05   0.0000000e+00   0.0000000e+00   0.0000000e+00   0.0000000e+00   0.0000000e+00   0.0000000e+00   0.0000000e+00   5.9118863e-05  -6.3067006e-05  -2.9759253e-05  -3.7509032e-05  -4.4212532e-06   0.0000000e+00   2.4329129e-04   0.0000000e+00  -9.9353667e-05  -1.8340266e-04   0.0000000e+00   0.0000000e+00   7.4427015e-05   0.0000000e+00   0.0000000e+00  -2.1513337e-04   0.0000000e+00   0.0000000e+00   0.0000000e+00  -1.1084203e-04   1.6663300e-04   7.5125241e-05   1.0345459e-04  -2.4573487e-05   3.4423313e-05   1.5896204e-04   0.0000000e+00  -1.0308430e-04  -1.0120155e-04   0.0000000e+00  -6.9263307e-05   0.0000000e+00   0.0000000e+00   0.0000000e+00   0.0000000e+00   0.0000000e+00   0.0000000e+00   0.0000000e+00   1.0610075e-04  -2.4839882e-04  -1.4724932e-05  -4.1999969e-06   6.9197770e-05   0.0000000e+00   1.2956189e-04   0.0000000e+00  -8.9270681e-05  -1.1128474e-04   0.0000000e+00   0.0000000e+00   2.7142691e-04   0.0000000e+00   0.0000000e+00  -2.1333196e-04   0.0000000e+00   0.0000000e+00   0.0000000e+00   7.4355857e-06   1.2806857e-05   2.8017369e-04  -8.3035337e-05  -7.0582060e-06   8.5125240e-05  -5.9501261e-05   0.0000000e+00  -1.0017759e-04  -2.2643189e-04   0.0000000e+00   5.8045260e-05   0.0000000e+00   0.0000000e+00   0.0000000e+00   0.0000000e+00   0.0000000e+00   0.0000000e+00   0.0000000e+00  -6.8893901e-05  -3.3963122e-04  -8.4374582e-05  -2.9296984e-04   1.8764626e-04   0.0000000e+00  -1.6315858e-04   0.0000000e+00  -1.1590426e-04  -1.8779033e-04   0.0000000e+00   0.0000000e+00  -2.5783781e-04   0.0000000e+00   0.0000000e+00  -2.4957091e-04   0.0000000e+00   0.0000000e+00   0.0000000e+00  -1.4081582e-04  -1.5692505e-04   3.1343463e-04  -1.3652062e-04  -1.3072566e-04   2.3588849e-04  -2.6227271e-04   0.0000000e+00  -3.8698158e-04  -3.9627492e-04   0.0000000e+00   1.3749562e-04   0.0000000e+00   0.0000000e+00   0.0000000e+00   0.0000000e+00   0.0000000e+00   0.0000000e+00   0.0000000e+00  -6.8295669e-05  -1.9509073e-04  -2.4914288e-04  -1.2399658e-04  -4.8856547e-05   0.0000000e+00   1.1286153e-04   0.0000000e+00  -1.5386170e-04  -1.0709483e-04   0.0000000e+00   0.0000000e+00   1.1919766e-04   0.0000000e+00   0.0000000e+00  -5.3697899e-04   0.0000000e+00   0.0000000e+00   0.0000000e+00  -8.7786704e-05   8.6807332e-05   7.3787899e-05  -8.9578374e-06  -1.2867407e-04   4.7251748e-05  -5.2167403e-05   0.0000000e+00  -1.5747769e-04  -2.6049074e-04   0.0000000e+00  -8.9546187e-05   0.0000000e+00   0.0000000e+00   0.0000000e+00   0.0000000e+00   0.0000000e+00   0.0000000e+00   0.0000000e+00  -1.8903885e-04  -1.3623868e-04  -2.9265288e-04  -8.7755892e-05   2.3129270e-05   0.0000000e+00   2.4112532e-04   0.0000000e+00  -2.2909350e-04   1.4411290e-05   0.0000000e+00   0.0000000e+00   2.4539147e-05   0.0000000e+00   0.0000000e+00  -5.9015394e-04   0.0000000e+00   0.0000000e+00   0.0000000e+00   5.2947561e-05  -4.6672367e-05  -2.1971105e-04  -1.3824244e-04  -2.1894708e-04   8.0875918e-05   8.8644141e-05   0.0000000e+00   1.1821053e-04   1.3745718e-04   0.0000000e+00  -2.1957886e-04   0.0000000e+00   0.0000000e+00   0.0000000e+00   0.0000000e+00   0.0000000e+00   0.0000000e+00   0.0000000e+00  -2.8870995e-04   1.2461685e-06  -1.1681603e-04  -2.5297697e-04  -2.4709324e-04   0.0000000e+00  -2.5994706e-04   0.0000000e+00   5.7990254e-05   6.3758813e-05   0.0000000e+00   0.0000000e+00  -3.3594039e-04   0.0000000e+00   0.0000000e+00  -1.1184874e-04   0.0000000e+00   0.0000000e+00   0.0000000e+00  -1.6034208e-04   1.2911910e-04  -2.1965005e-04   9.9671390e-05  -8.1464615e-05  -2.0297407e-04   1.0867360e-04   0.0000000e+00  -5.1597373e-05   2.3649604e-05   0.0000000e+00  -1.6128606e-04   0.0000000e+00   0.0000000e+00   0.0000000e+00   0.0000000e+00   0.0000000e+00   0.0000000e+00   0.0000000e+00  -1.2669459e-03  -1.2030697e-03  -7.3711073e-04  -5.3575418e-05  -1.1320368e-03   0.0000000e+00  -6.3967106e-04   0.0000000e+00   2.3185451e-06   1.1530749e-03   0.0000000e+00   0.0000000e+00  -1.7790812e-03   0.0000000e+00   0.0000000e+00   2.0852003e-03   0.0000000e+00   0.0000000e+00   0.0000000e+00  -1.4623363e-03  -1.2611502e-03  -2.6453155e-03  -6.1435145e-04  -7.0494181e-04  -1.3313628e-03  -4.8102805e-04   0.0000000e+00   1.4541109e-04   4.0285073e-04   0.0000000e+00  -8.4067875e-04   0.0000000e+00   0.0000000e+00   0.0000000e+00   0.0000000e+00   0.0000000e+00   0.0000000e+00   0.0000000e+00
   3.6274871e-05   1.5182768e-04  -4.1632284e-05  -1.6935846e-04  -5.5109256e-05   0.0000000e+00   1.0674351e-04   0.0000000e+00   5.3889426e-05  -6.6792020e-05   0.0000000e+00   0.0000000e+00   4.3570343e-04   0.0000000e+00   0.0000000e+00  -4.5062739e-05   0.0000000e+00   0.0000000e+00   0.0000000e+00   9.3702220e-05   4.6567534e-05  -1.3674360e-06   6.9114072e-05  -6.0608102e-05  -6.2647610e-05   3.6584183e-05   0.0000000e+00   1.3993779e-05   1.7109209e-05   0.0000000e+00   8.5391705e-05   0.0000000e+00   0.0000000e+00   0.0000000e+00   0.0000000e+00   0.0000000e+00   0.0000000e+00   0.0000000e+00  -1.0056298e-04  -3.4029685e-04  -1.2867444e-04  -2.2195655e-05  -5.3511712e-05   0.0000000e+00   7.2755406e-05   0.0000000e+00  -1.0955331e-04  -1.3850058e-04   0.0000000e+00   0.0000000e+00   6.0332168e-05   0.0000000e+00   0.0000000e+00  -3.1132427e-04   0.0000000e+00   0.0000000e+00   0.0000000e+00  -4.4832159e-05  -4.4034412e-05   6.4464536e-05  -2.6209084e-05   2.7113740e-05  -4.2615460e-05  -5.1563647e-06   0.0000000e+00   1.2454937e-05  -9.6743721e-05   0.0000000e+00  -1.4766655e-04   0.0000000e+00   0.0000000e+00   0.0000000e+00   0.0000000e+00   0.0000000e+00   0.0000000e+00   0.0000000e+00   2.0445778e-04   4.8392898e-04   1.6766735e-04   2.7531077e-04  -4.5620390e-05   0.0000000e+00   6.4724760e-05   0.0000000e+00  -1.1658659e-04   5.7012999e-04   0.0000000e+00   0.0000000e+00  -4.3171200e-04   0.0000000e+00   0.0000000e+00   3.1303174e-04   0.0000000e+00   0.0000000e+00   0.0000000e+00   7.2397699e-05  -2.1010416e-04   1.1880710e-04   3.4934185e-04   4.4807292e-04   1.8355290e-04   2.3977604e-04   0.0000000e+00   6.7541885e-04   2.0741648e-04   0.0000000e+00   2.2079254e-04   0.0000000e+00   0.0000000e+00   0.0000000e+00   0.0000000e+00   0.0000000e+00   0.0000000e+00   0.0000000e+00  -8.3533775e-05  -1.2808504e-05   3.9683132e-05  -2.0145219e-04  -8.1929935e-05   0.0000000e+00  -1.6562405e-04   0.0000000e+00   1.2658939e-04   4.2190535e-05   0.0000000e+00   0.0000000e+00  -1.7466836e-04   0.0000000e+00   0.0000000e+00   2.8104381e-04   0.0000000e+00   0.0000000e+00   0.0000000e+00  -3.4785790e-05  -5.0706303e-05  -8.8204930e-05  -3.7323812e-05   8.8198752e-06  -7.7873417e-05   3.2829271e-05   0.0000000e+00   1.8418795e-05   5.2252312e-05   0.0000000e+00  -4.9433645e-05   0.0000000e+00   0.0000000e+00   0.0000000e+00   0.0000000e+00   0.0000000e+00   0.0000000e+00   0.0000000e+00   5.7955012e-05  -7.4646586e-05  -2.4566826e-05  -3.4841474e-05  -2.5947805e-06   0.0000000e+00   2.4470031e-04   0.0000000e+00  -1.0616251e-04  -1.7985058e-04   0.0000000e+00   0.0000000e+00   3.7126351e-05   0.0000000e+00   0.0000000e+00  -2.1639575e-04   0.0000000e+00   0.0000000e+00   0.0000000e+00  -1.2367760e-04   1.6505286e-04   7.8010384e-05   1.0157179e-04  -1.4215470e-05   4.3084876e-05   1.5550912e-04   0.0000000e+00  -1.1201388e-04  -1.0893959e-04   0.0000000e+00  -8.4145709e-05   0.0000000e+00   0.0000000e+00   0.0000000e+00   0.0000000e+00   0.0000000e+00   0.0000000e+00   0.0000000e+00   1.0492566e-04  -2.7448195e-04  -7.6853408e-06  -6.8082267e-06   7.4279149e-05   0.0000000e+00   1.2710207e-04   0.0000000e+00  -8.4634923e-05  -1.0573146e-04   0.0000000e+00   0.0000000e+00   2.2120263e-04   0.0000000e+00   0.0000000e+00  -2.0525643e-04   0.0000000e+00   0.0000000e+00   0.0000000e+00  -3.0565488e-07   5.3253014e-06   2.9531924e-04  -9.6193624e-05  -1.4007997e-05   7.4310358e-05  -7.1605347e-05   0.0000000e+00  -1.1150292e-04  -2.2738891e-04   0.0000000e+00   6.4571089e-05   0.0000000e+00   0.0000000e+00   0.0000000e+00   0.0000000e+00   0.0000000e+00   0.0000000e+00   0.0000000e+00  -6.9622823e-05  -3.6150560e-04  -6.7809423e-05  -2.9952953e-04   1.9155143e-04   0.0000000e+00  -1.8128008e-04   0.0000000e+00  -9.4103033e-05  -2.1181760e-04   0.0000000e+00   0.0000000e+00  -3.8211231e-04   0.0000000e+00   0.0000000e+00  -2.2470129e-04   0.0000000e+00   0.0000000e+00   0.0000000e+00  -1.5322894e-04  -1.6085363e-04   3.0539176e-04  -1.6126020e-04  -1.2847645e-04   2.4035238e-04  -2.7647399e-04   0.0000000e+00  -4.0717263e-04  -3.9323296e-04   0.0000000e+00   1.6744073e-04   0.0000000e+00   0.0000000e+00   0.0000000e+00   0.0000000e+00   0.0000000e+00   0.0000000e+00   0.0000000e+00  -7.9295059e-05  -2.2138320e-04  -2.8711571e-04  -1.0441056e-04  -5.3939360e-05   0.0000000e+00   1.1685170e-04   0.0000000e+00  -1.9213452e-04  -1.1086769e-04   0.0000000e+00   0.0000000e+00   9.8153022e-05   0.0000000e+00   0.0000000e+00  -6.0287681e-04   0.0000000e+00   0.0000000e+00   0.0000000e+00  -1.0642056e-04   9.0666187e-05   6.8053344e-05  -7.3626679e-06  -1.3399465e-04   5.0847738e-05  -5.8247745e-05   0.0000000e+00  -1.6672701e-04  -2.8638733e-04   0.0000000e+00  -1.1370158e-04   0.0000000e+00   0.0000000e+00   0.0000000e+00   0.0000000e+00   0.0000000e+00   0.0000000e+00   0.0000000e+00  -1.7298543e-04  -1.5626211e-04  -2.7219620e-04  -5.8075486e-05   2.8830681e-05   0.0000000e+00   2.7038270e-04   0.0000000e+00  -2.3661838e-04   4.5873215e-06   0.0000000e+00   0.0000000e+00   1.8427110e-05   0.0000000e+00   0.0000000e+00  -5.4482943e-04   0.0000000e+00   0.0000000e+00   0.0000000e+00   4.1970585e-05  -5.1746009e-05  -2.2259731e-04  -1.5021122e-04  -2.2650264e-04   1.2239880e-04   6.1422921e-05   0.0000000e+00   1.0843451e-04   1.3138912e-04   0.0000000e+00  -1.9312614e-04   0.0000000e+00   0.0000000e+00   0.0000000e+00   0.0000000e+00   0.0000000e+00   0.0000000e+00   0.0000000e+00  -3.0697622e-04   6.1158133e-07  -1.2780316e-04  -2.6650271e-04  -2.4371691e-04   0.0000000e+00  -3.1058975e-04   0.0000000e+00   6.2435155e-05   6.8268481e-05   0.0000000e+00   0.0000000e+00  -4.3668665e-04   0.0000000e+00   0.0000000e+00  -1.0236002e-04   0.0000000e+00   0.0000000e+00   0.0000000e+00  -1.7728649e-04   1.4148673e-04  -2.4023220e-04   1.1210062e-04  -1.0584402e-04  -2.3826461e-04   1.2329679e-04   0.0000000e+00  -6.5479936e-05   3.3953523e-05   0.0000000e+00  -1.6271143e-04   0.0000000e+00   0.0000000e+00   0.0000000e+00   0.0000000e+00   0.0000000e+00   0.0000000e+00   0.0000000e+00  -1.3638230e-03  -1.3113996e-03  -7.7552309e-04  -5.2421706e-05  -1.2298764e-03   0.0000000e+00  -5.9832627e-04   0.0000000e+00   3.7064881e-05   1.2178708e-03   0.0000000e+00   0.0000000e+00  -1.9677957e-03   0.0000000e+00   0.0000000e+00   2.3428902e-03   0.0000000e+00   0.0000000e+00   0.0000000e+00  -1.4843619e-03  -1.2262669e-03  -2.8354101e-03  -6.2106265e-04  -7.7717048e-04  -1.4477155e-03  -4.5331173e-04   0.0000000e+00   1.2422475e-04   4.4628441e-04   0.0000000e+00  -9.2207792e-04   0.0000000e+00   0.0000000e+00   0.0000000e+00   0.0000000e+00   0.0000000e+00   0.0000000e+00   0.0000000e+00
   2.8330670e-05   1.3606205e-04  -5.6428638e-05  -1.9681060e-04  -5.8766786e-05   0.0000000e+00   1.0123696e-04   0.0000000e+00   4.3892068e-05  -7.8408900e-05   0.0000000e+00   0.0000000e+00   4.5020336e-04   0.0000000e+00   0.0000000e+00  -6.6449854e-05   0.0000000e+00   0.0000000e+00   0.0000000e+00   9.1013055e-05   4.6389499e-05   4.4563494e-06   6.6495266e-05  -7.5125770e-05  -6.4432659e-05   3.3169666e-05   0.0000000e+00   5.9423520e-06   1.4966967e-06   0.0000000e+00   7.4841689e-05   0.0000000e+00   0.0000000e+00   0.0000000e+00   0.0000000e+00   0.0000000e+00   0.0000000e+00   0.0000000e+00  -8.1390170e-05  -3.5795998e-04  -1.3097646e-04  -4.0899193e-06  -2.4200207e-05   0.0000000e+00   9.5159036e-05   0.0000000e+00  -1.2007882e-04  -1.3421378e-04   0.0000000e+00   0.0000000e+00   4.2306062e-05   0.0000000e+00   0.0000000e+00  -3.2388224e-04   0.0000000e+00   0.0000000e+00   0.0000000e+00  -4.6184304e-05  -4.7793133e-05   9.1329854e-05  -3.3108439e-05   3.9878425e-05  -2.5937325e-05  -9.3157459e-06   0.0000000e+00   1.5896747e-05  -1.0029533e-04   0.0000000e+00  -1.6114605e-04   0.0000000e+00   0.0000000e+00   0.0000000e+00   0.0000000e+00   0.0000000e+00   0.0000000e+00   0.0000000e+00   1.9819254e-04   5.2814445e-04   2.5244390e-04   2.6600552e-04  -5.8480965e-05   0.0000000e+00   7.3051337e-05   0.0000000e+00  -5.5724178e-05   6.1733745e-04   0.0000000e+00   0.0000000e+00  -5.5544024e-04   0.0000000e+00   0.0000000e+00   4.1597583e-04   0.0000000e+00   0.0000000e+00   0.0000000e+00   9.7221811e-05  -1.9475171e-04   1.1126525e-04   3.8960913e-04   4.9950486e-04   2.4196935e-04   3.2239335e-04   0.0000000e+00   7.1367862e-04   1.9895853e-04   0.0000000e+00   2.4218153e-04   0.0000000e+00   0.0000000e+00   0.0000000e+00   0.0000000e+00   0.0000000e+00   0.0000000e+00   0.0000000e+00  -9.1705925e-05  -1.8339557e-05   3.6461144e-05  -1.9275060e-04  -8.1347305e-05   0.0000000e+00  -1.8538433e-04   0.0000000e+00   1.1971034e-04   5.6835728e-05   0.0000000e+00   0.0000000e+00  -2.0283926e-04   0.0000000e+00   0.0000000e+00   2.8141929e-04   0.0000000e+00   0.0000000e+00   0.0000000e+00  -3.8597580e-05  -5.8871738e-05  -1.0012351e-04  -4.5301358e-05   1.1577550e-05  -8.2341608e-05   3.2018589e-05   0.0000000e+00   2.3059434e-05   6.1581852e-05   0.0000000e+00  -6.6967783e-05   0.0000000e+00   0.0000000e+00   0.0000000e+00   0.0000000e+00   0.0000000e+00   0.0000000e+00   0.0000000e+00   5.4234958e-05  -8.7076859e-05  -1.8386107e-05  -3.0954674e-05  -9.7540086e-07   0.0000000e+00   2.4079153e-04   0.0000000e+00  -1.1194735e-04  -1.7070769e-04   0.0000000e+00   0.0000000e+00  -3.0690532e-06   0.0000000e+00   0.0000000e+00  -2.1193061e-04   0.0000000e+00   0.0000000e+00   0.0000000e+00  -1.3587268e-04   1.5654517e-04   7.7795309e-05   9.6319503e-05  -9.8654516e-07   5.1985028e-05   1.4746485e-04   0.0000000e+00  -1.1794394e-04  -1.1524378e-04   0.0000000e+00  -9.9510986e-05   0.0000000e+00   0.0000000e+00   0.0000000e+00   0.0000000e+00   0.0000000e+00   0.0000000e+00   0.0000000e+00   1.0250496e-04  -2.9507063e-04   2.7210694e-07  -8.3235798e-06   7.8809521e-05   0.0000000e+00   1.2435042e-04   0.0000000e+00  -7.9131225e-05  -9.8564905e-05   0.0000000e+00   0.0000000e+00   1.6624478e-04   0.0000000e+00   0.0000000e+00  -1.9415701e-04   0.0000000e+00   0.0000000e+00   0.0000000e+00  -7.6941969e-06  -1.3738854e-06   3.0457672e-04  -1.0779464e-04  -2.2478192e-05   6.1357312e-05  -8.2285187e-05   0.0000000e+00  -1.2060957e-04  -2.2334097e-04   0.0000000e+00   7.0215539e-05   0.0000000e+00   0.0000000e+00   0.0000000e+00   0.0000000e+00   0.0000000e+00   0.0000000e+00   0.0000000e+00  -6.9619099e-05  -3.8197851e-04  -5.1019044e-05  -3.0443882e-04   1.9570217e-04   0.0000000e+00  -1.9737346e-04   0.0000000e+00  -7.1903117e-05  -2.3873451e-04   0.0000000e+00   0.0000000e+00  -4.9773132e-04   0.0000000e+00   0.0000000e+00  -2.0265216e-04   0.0000000e+00   0.0000000e+00   0.0000000e+00  -1.6211945e-04  -1.6516195e-04   2.9525433e-04  -1.8855912e-04  -1.2430521e-04   2.4160643e-04  -2.8965085e-04   0.0000000e+00  -4.2282701e-04  -3.8254050e-04   0.0000000e+00   1.9406214e-04   0.0000000e+00   0.0000000e+00   0.0000000e+00   0.0000000e+00   0.0000000e+00   0.0000000e+00   0.0000000e+00  -8.7868359e-05  -2.4363902e-04  -3.2034325e-04  -7.8835384e-05  -5.5789057e-05   0.0000000e+00   1.1756352e-04   0.0000000e+00  -2.2972914e-04  -1.1429462e-04   0.0000000e+00   0.0000000e+00   7.3990508e-05   0.0000000e+00   0.0000000e+00  -6.6366358e-04   0.0000000e+00   0.0000000e+00   0.0000000e+00  -1.2281416e-04   9.4011500e-05   6.1484393e-05  -5.4126848e-06  -1.3554457e-04   5.4989003e-05  -6.3268490e-05   0.0000000e+00  -1.7345807e-04  -3.0907614e-04   0.0000000e+00  -1.3741408e-04   0.0000000e+00   0.0000000e+00   0.0000000e+00   0.0000000e+00   0.0000000e+00   0.0000000e+00   0.0000000e+00  -1.5498354e-04  -1.7929387e-04  -2.4771245e-04  -2.7160379e-05   3.1395660e-05   0.0000000e+00   2.9586311e-04   0.0000000e+00  -2.4135934e-04  -8.6374591e-06   0.0000000e+00   0.0000000e+00   1.4327311e-05   0.0000000e+00   0.0000000e+00  -4.9300785e-04   0.0000000e+00   0.0000000e+00   0.0000000e+00   2.8077639e-05  -5.7995504e-05  -2.2261987e-04  -1.6254330e-04  -2.3281738e-04   1.5974411e-04   2.7865535e-05   0.0000000e+00   9.3105213e-05   1.2258253e-04   0.0000000e+00  -1.5958722e-04   0.0000000e+00   0.0000000e+00   0.0000000e+00   0.0000000e+00   0.0000000e+00   0.0000000e+00   0.0000000e+00  -3.2325838e-04  -2.2569824e-07  -1.3774855e-04  -2.7721020e-04  -2.3734186e-04   0.0000000e+00  -3.6680870e-04   0.0000000e+00   6.6719300e-05   7.2394499e-05   0.0000000e+00   0.0000000e+00  -5.3970500e-04   0.0000000e+00   0.0000000e+00  -8.5241960e-05   0.0000000e+00   0.0000000e+00   0.0000000e+00  -1.9538023e-04   1.5218216e-04  -2.6245329e-04   1.2373040e-04  -1.3047062e-04  -2.7195471e-04   1.3670755e-04   0.0000000e+00  -7.9830673e-05   4.4628698e-05   0.0000000e+00  -1.6952560e-04   0.0000000e+00   0.0000000e+00   0.0000000e+00   0.0000000e+00   0.0000000e+00   0.0000000e+00   0.0000000e+00  -1.4457551e-03  -1.4149294e-03  -8.0626867e-04  -5.4887128e-05  -1.3186606e-03   0.0000000e+00  -5.3982681e-04   0.0000000e+00   7.2192185e-05   1.2524029e-03   0.0000000e+00   0.0000000e+00  -2.1281901e-03   0.0000000e+00   0.0000000e+00   2.5702154e-03   0.0000000e+00   0.0000000e+00   0.0000000e+00  -1.4779289e-03  -1.1583057e-03  -2.9922580e-03  -6.1809852e-04  -8.5041128e-04  -1.5526935e-03  -4.1928120e-04   0.0000000e+00   9.0044920e-05   4.8603287e-04   0.0000000e+00  -9.9201595e-04   0.0000000e+00   0.0000000e+00   0.0000000e+00   0.0000000e+00   0.0000000e+00   0.0000000e+00   0.0000000e+00
   1.9971088e-05   1.1658417e-04  -7.1434399e-05  -2.2212331e-04  -6.1528018e-05   0.0000000e+00   9.4079743e-05   0.0000000e+00   3.1581388e-05  -8.9578210e-05   0.0000000e+00   0.0000000e+00   4.5749203e-04   0.0000000e+00   0.0000000e+00  -9.0180243e-05   0.0000000e+00   0.0000000e+00   0.0000000e+00   8.6833771e-05   4.5814437e-05   1.1564483e-05   6.2697031e-05  -8.9005367e-05  -6.4781233e-05   2.9200370e-05   0.0000000e+00  -2.5207706e-06  -1.5822220e-05   0.0000000e+00   6.1501089e-05   0.0000000e+00   0.0000000e+00   0.0000000e+00   0.0000000e+00   0.0000000e+00   0.0000000e+00   0.0000000e+00  -5.7744821e-05  -3.6804574e-04  -1.3109927e-04   1.8404727e-05   7.9504346e-06   0.0000000e+00   1.2059662e-04   0.0000000e+00  -1.2911418e-04  -1.2634891e-04   0.0000000e+00   0.0000000e+00   2.7485805e-05   0.0000000e+00   0.0000000e+00  -3.3160054e-04   0.0000000e+00   0.0000000e+00   0.0000000e+00  -4.5685358e-05  -5.0536850e-05   1.1764237e-04  -3.8882527e-05   5.5575913e-05  -4.8406582e-06  -1.2853706e-05   0.0000000e+00   2.1012378e-05  -1.0270605e-04   0.0000000e+00  -1.7355462e-04   0.0000000e+00   0.0000000e+00   0.0000000e+00   0.0000000e+00   0.0000000e+00   0.0000000e+00   0.0000000e+00   1.9093416e-04   5.5781347e-04   3.2838336e-04   2.4717738e-04  -7.5118868e-05   0.0000000e+00   9.8643005e-05   0.0000000e+00   2.0443413e-05   6.4359202e-04   0.0000000e+00   0.0000000e+00  -6.6417716e-04   0.0000000e+00   0.0000000e+00   5.2066184e-04   0.0000000e+00   0.0000000e+00   0.0000000e+00   1.2437694e-04  -1.4860532e-04   1.1310962e-04   4.3287767e-04   5.4042112e-04   2.9813125e-04   4.1000580e-04   0.0000000e+00   7.2213212e-04   1.8385307e-04   0.0000000e+00   2.5921833e-04   0.0000000e+00   0.0000000e+00   0.0000000e+00   0.0000000e+00   0.0000000e+00   0.0000000e+00   0.0000000e+00  -9.7999922e-05  -2.5191533e-05   3.3026139e-05  -1.7900733e-04  -7.7839119e-05   0.0000000e+00  -2.0236143e-04   0.0000000e+00   1.0897874e-04   7.2542801e-05   0.0000000e+00   0.0000000e+00  -2.2482637e-04   0.0000000e+00   0.0000000e+00   2.7621383e-04   0.0000000e+00   0.0000000e+00   0.0000000e+00  -4.1002713e-05  -6.5253118e-05  -1.0924752e-04  -5.2881815e-05   1.4062752e-05  -8.4900204e-05   3.0910825e-05   0.0000000e+00   2.7770388e-05   7.0349314e-05   0.0000000e+00  -8.6375896e-05   0.0000000e+00   0.0000000e+00   0.0000000e+00   0.0000000e+00   0.0000000e+00   0.0000000e+00   0.0000000e+00   4.7705054e-05  -1.0040831e-04  -1.1268170e-05  -2.6129919e-05   7.6717394e-09   0.0000000e+00   2.3145369e-04   0.0000000e+00  -1.1635380e-04  -1.5632785e-04   0.0000000e+00   0.0000000e+00  -4.5805085e-05   0.0000000e+00   0.0000000e+00  -2.0068301e-04   0.0000000e+00   0.0000000e+00   0.0000000e+00  -1.4761265e-04   1.4063169e-04   7.3889550e-05   8.7402703e-05   1.4711101e-05   6.0412386e-05   1.3478708e-04   0.0000000e+00  -1.2079682e-04  -1.2005366e-04   0.0000000e+00  -1.1466912e-04   0.0000000e+00   0.0000000e+00   0.0000000e+00   0.0000000e+00   0.0000000e+00   0.0000000e+00   0.0000000e+00   9.9260272e-05  -3.0939663e-04   9.0036572e-06  -8.4477633e-06   8.2685654e-05   0.0000000e+00   1.2217805e-04   0.0000000e+00  -7.3144612e-05  -9.0349688e-05   0.0000000e+00   0.0000000e+00   1.1007100e-04   0.0000000e+00   0.0000000e+00  -1.8065059e-04   0.0000000e+00   0.0000000e+00   0.0000000e+00  -1.4329438e-05  -6.6864108e-06   3.0785741e-04  -1.1724092e-04  -3.2135749e-05   4.7274802e-05  -9.1001745e-05   0.0000000e+00  -1.2716517e-04  -2.1483377e-04   0.0000000e+00   7.4791014e-05   0.0000000e+00   0.0000000e+00   0.0000000e+00   0.0000000e+00   0.0000000e+00   0.0000000e+00   0.0000000e+00  -6.9242539e-05  -4.0124054e-04  -3.5628640e-05  -3.0842742e-04   2.0056693e-04   0.0000000e+00  -2.1121754e-04   0.0000000e+00  -5.1277536e-05  -2.6871533e-04   0.0000000e+00   0.0000000e+00  -5.9966963e-04   0.0000000e+00   0.0000000e+00  -1.8683209e-04   0.0000000e+00   0.0000000e+00   0.0000000e+00  -1.6716054e-04  -1.7030212e-04   2.8444591e-04  -2.1781302e-04  -1.1876355e-04   2.4003776e-04  -3.0204529e-04   0.0000000e+00  -4.3417295e-04  -3.6540979e-04   0.0000000e+00   2.1567553e-04   0.0000000e+00   0.0000000e+00   0.0000000e+00   0.0000000e+00   0.0000000e+00   0.0000000e+00   0.0000000e+00  -9.3209180e-05  -2.6113782e-04  -3.4714638e-04  -4.7666503e-05  -5.3815628e-05   0.0000000e+00   1.1537315e-04   0.0000000e+00  -2.6513503e-04  -1.1754636e-04   0.0000000e+00   0.0000000e+00   4.8742617e-05   0.0000000e+00   0.0000000e+00  -7.1682394e-04   0.0000000e+00   0.0000000e+00   0.0000000e+00  -1.3604460e-04   9.6641612e-05   5.4929680e-05  -3.5030329e-06  -1.3293618e-04   5.9840805e-05  -6.7079302e-05   0.0000000e+00  -1.7736040e-04  -3.2807901e-04   0.0000000e+00  -1.5960307e-04   0.0000000e+00   0.0000000e+00   0.0000000e+00   0.0000000e+00   0.0000000e+00   0.0000000e+00   0.0000000e+00  -1.3681792e-04  -2.0540923e-04  -2.2100467e-04   3.1240488e-06   2.9834385e-05   0.0000000e+00   3.1620849e-04   0.0000000e+00  -2.4343080e-04  -2.5534677e-05   0.0000000e+00   0.0000000e+00   1.1081477e-05   0.0000000e+00   0.0000000e+00  -4.3859649e-04   0.0000000e+00   0.0000000e+00   0.0000000e+00   1.1202307e-05  -6.5831273e-05  -2.2073330e-04  -1.7547416e-04  -2.3882299e-04   1.9049598e-04  -1.1452110e-05   0.0000000e+00   7.2525647e-05   1.1167919e-04   0.0000000e+00  -1.2089930e-04   0.0000000e+00   0.0000000e+00   0.0000000e+00   0.0000000e+00   0.0000000e+00   0.0000000e+00   0.0000000e+00  -3.3779064e-04  -1.4337049e-06  -1.4653322e-04  -2.8517960e-04  -2.2893936e-04   0.0000000e+00  -4.2778956e-04   0.0000000e+00   7.0821630e-05   7.6503137e-05   0.0000000e+00   0.0000000e+00  -6.4094398e-04   0.0000000e+00   0.0000000e+00  -6.0545103e-05   0.0000000e+00   0.0000000e+00   0.0000000e+00  -2.1469132e-04   1.6088885e-04  -2.8640783e-04   1.3417699e-04  -1.5435295e-04  -3.0300701e-04   1.4844166e-04   0.0000000e+00  -9.4187723e-05   5.5202487e-05   0.0000000e+00  -1.8340499e-04   0.0000000e+00   0.0000000e+00   0.0000000e+00   0.0000000e+00   0.0000000e+00   0.0000000e+00   0.0000000e+00  -1.5123524e-03  -1.5126358e-03  -8.3069150e-04  -6.1359579e-05  -1.3991673e-03   0.0000000e+00  -4.6686339e-04   0.0000000e+00   1.0529795e-04   1.2549803e-03   0.0000000e+00   0.0000000e+00  -2.2546250e-03   0.0000000e+00   0.0000000e+00   2.7584982e-03   0.0000000e+00   0.0000000e+00   0.0000000e+00  -1.4457633e-03  -1.0606112e-03  -3.1160070e-03  -6.0647174e-04  -9.2464295e-04  -1.6458195e-03  -3.8177550e-04   0.0000000e+00   4.3688615e-05   5.2133145e-04   0.0000000e+00  -1.0491537e-03   0.0000000e+00   0.0000000e+00   0.0000000e+00   0.0000000e+00   0.0000000e+00   0.0000000e+00   0.0000000e+00
   1.1511519e-05   9.4126656e-05  -8.6205658e-05  -2.4455929e-04  -6.3438871e-05   0.0000000e+00   8.5464196e-05   0.0000000e+00   1.7400371e-05  -1.0000647e-04   0.0000000e+00   0.0000000e+00   4.5745714e-04   0.0000000e+00   0.0000000e+00  -1.1558554e-04   0.0000000e+00   0.0000000e+00   0.0000000e+00   8.1350719e-05   4.4821558e-05   1.9672720e-05   5.7715280e-05  -1.0184055e-04  -6.3964395e-05   2.4801000e-05   0.0000000e+00  -1.1032408e-05  -3.4061436e-05   0.0000000e+00   4.6034021e-05   0.0000000e+00   0.0000000e+00   0.0000000e+00   0.0000000e+00   0.0000000e+00   0.0000000e+00   0.0000000e+00  -3.0318149e-05  -3.7005516e-04  -1.2908050e-04   4.4947422e-05   4.1799016e-05   0.0000000e+00   1.4858916e-04   0.0000000e+00  -1.3638401e-04  -1.1461719e-04   0.0000000e+00   0.0000000e+00   1.6316735e-05   0.0000000e+00   0.0000000e+00  -3.3429011e-04   0.0000000e+00   0.0000000e+00   0.0000000e+00  -4.3179316e-05  -5.1828985e-05   1.4243508e-04  -4.3038616e-05   7.4280319e-05   2.0090925e-05  -1.5186929e-05   0.0000000e+00   2.7969152e-05  -1.0392667e-04   0.0000000e+00  -1.8471692e-04   0.0000000e+00   0.0000000e+00   0.0000000e+00   0.0000000e+00   0.0000000e+00   0.0000000e+00   0.0000000e+00   1.8250068e-04   5.6974860e-04   3.8768812e-04   2.1839212e-04  -9.7171714e-05   0.0000000e+00   1.4382560e-04   0.0000000e+00   1.0906024e-04   6.4537015e-04   0.0000000e+00   0.0000000e+00  -7.5344093e-04   0.0000000e+00   0.0000000e+00   6.2114410e-04   0.0000000e+00   0.0000000e+00   0.0000000e+00   1.5242031e-04  -6.9022639e-05   1.2516257e-04   4.7845616e-04   5.6728174e-04   3.4756352e-04   4.9982179e-04   0.0000000e+00   6.9699899e-04   1.6309283e-04   0.0000000e+00   2.6832375e-04   0.0000000e+00   0.0000000e+00   0.0000000e+00   0.0000000e+00   0.0000000e+00   0.0000000e+00   0.0000000e+00  -1.0216384e-04  -3.3160742e-05   2.9747889e-05  -1.6087077e-04  -7.1494789e-05   0.0000000e+00  -2.1617429e-04   0.0000000e+00   9.5029727e-05   8.8777643e-05   0.0000000e+00   0.0000000e+00  -2.3931443e-04   0.0000000e+00   0.0000000e+00   2.6579198e-04   0.0000000e+00   0.0000000e+00   0.0000000e+00  -4.1844004e-05  -6.9623068e-05  -1.1501651e-04  -5.9758382e-05   1.6247161e-05  -8.5319216e-05   2.9616247e-05   0.0000000e+00   3.2316100e-05   7.8185927e-05   0.0000000e+00  -1.0710523e-04   0.0000000e+00   0.0000000e+00   0.0000000e+00   0.0000000e+00   0.0000000e+00   0.0000000e+00   0.0000000e+00   3.8156442e-05  -1.1468250e-04  -3.2878314e-06  -2.0792885e-05  -1.3107441e-07   0.0000000e+00   2.1667767e-04   0.0000000e+00  -1.1903274e-04  -1.3729179e-04   0.0000000e+00   0.0000000e+00  -9.1126242e-05   0.0000000e+00   0.0000000e+00  -1.8165422e-04   0.0000000e+00   0.0000000e+00   0.0000000e+00  -1.5917102e-04   1.1717235e-04   6.5780408e-05   7.4648534e-05   3.2314248e-05   6.7543758e-05   1.1758701e-04   0.0000000e+00  -1.2070982e-04  -1.2338635e-04   0.0000000e+00  -1.2895201e-04   0.0000000e+00   0.0000000e+00   0.0000000e+00   0.0000000e+00   0.0000000e+00   0.0000000e+00   0.0000000e+00   9.5647806e-05  -3.1703946e-04   1.8361107e-05  -6.9650589e-06   8.5816998e-05   0.0000000e+00   1.2143655e-04   0.0000000e+00  -6.7041154e-05  -8.1684461e-05   0.0000000e+00   0.0000000e+00   5.6170509e-05   0.0000000e+00   0.0000000e+00  -1.6540104e-04   0.0000000e+00   0.0000000e+00   0.0000000e+00  -1.9875280e-05  -1.0077624e-05   3.0542704e-04  -1.2401786e-04  -4.2537414e-05   3.3153565e-05  -9.7318898e-05   0.0000000e+00  -1.3098663e-04  -2.0264697e-04   0.0000000e+00   7.8165192e-05   0.0000000e+00   0.0000000e+00   0.0000000e+00   0.0000000e+00   0.0000000e+00   0.0000000e+00   0.0000000e+00  -6.8941138e-05  -4.1937910e-04  -2.3178349e-05  -3.1223437e-04   2.0638192e-04   0.0000000e+00  -2.2287261e-04   0.0000000e+00  -3.4030383e-05  -3.0168861e-04   0.0000000e+00   0.0000000e+00  -6.8423673e-04   0.0000000e+00   0.0000000e+00  -1.8008522e-04   0.0000000e+00   0.0000000e+00   0.0000000e+00  -1.6830841e-04  -1.7660987e-04   2.7407671e-04  -2.4820391e-04  -1.1249943e-04   2.3603451e-04  -3.1384436e-04   0.0000000e+00  -4.4161815e-04  -3.4333249e-04   0.0000000e+00   2.3086974e-04   0.0000000e+00   0.0000000e+00   0.0000000e+00   0.0000000e+00   0.0000000e+00   0.0000000e+00   0.0000000e+00  -9.4618799e-05  -2.7335119e-04  -3.6613820e-04  -1.1428615e-05  -4.7622918e-05   0.0000000e+00   1.1094551e-04   0.0000000e+00  -2.9693952e-04  -1.2072817e-04   0.0000000e+00   0.0000000e+00   2.4584312e-05   0.0000000e+00   0.0000000e+00  -7.6011107e-04   0.0000000e+00   0.0000000e+00   0.0000000e+00  -1.4533406e-04   9.8339947e-05   4.9260071e-05  -2.0058573e-06  -1.2592105e-04   6.5560261e-05  -6.9580517e-05   0.0000000e+00  -1.7817953e-04  -3.4310006e-04   0.0000000e+00  -1.7920407e-04   0.0000000e+00   0.0000000e+00   0.0000000e+00   0.0000000e+00   0.0000000e+00   0.0000000e+00   0.0000000e+00  -1.2034777e-04  -2.3445578e-04  -1.9390528e-04   3.0953423e-05   2.3296384e-05   0.0000000e+00   3.3024888e-04   0.0000000e+00  -2.4303042e-04  -4.6212978e-05   0.0000000e+00   0.0000000e+00   7.1093867e-06   0.0000000e+00   0.0000000e+00  -3.8532543e-04   0.0000000e+00   0.0000000e+00   0.0000000e+00  -8.6756384e-06  -7.5641709e-05  -2.1819442e-04  -1.8922256e-04  -2.4558052e-04   2.1263442e-04  -5.5732235e-05   0.0000000e+00   4.7246998e-05   9.9440381e-05   0.0000000e+00  -7.9333423e-05   0.0000000e+00   0.0000000e+00   0.0000000e+00   0.0000000e+00   0.0000000e+00   0.0000000e+00   0.0000000e+00  -3.5094749e-04  -3.1796246e-06  -1.5412398e-04  -2.9068343e-04  -2.1957508e-04   0.0000000e+00  -4.9252988e-04   0.0000000e+00   7.4717755e-05   8.1005572e-05   0.0000000e+00   0.0000000e+00  -7.3661872e-04   0.0000000e+00   0.0000000e+00  -2.8705625e-05   0.0000000e+00   0.0000000e+00   0.0000000e+00  -2.3521898e-04   1.6737009e-04  -3.1207525e-04   1.4310818e-04  -1.7654724e-04  -3.3059444e-04   1.5809678e-04   0.0000000e+00  -1.0808315e-04   6.5235186e-05   0.0000000e+00  -2.0562527e-04   0.0000000e+00   0.0000000e+00   0.0000000e+00   0.0000000e+00   0.0000000e+00   0.0000000e+00   0.0000000e+00  -1.5641576e-03  -1.6034840e-03  -8.5057172e-04  -7.1900605e-05  -1.4729103e-03   0.0000000e+00  -3.8296397e-04   0.0000000e+00   1.3402313e-04   1.2258499e-03   0.0000000e+00   0.0000000e+00  -2.3429450e-03   0.0000000e+00   0.0000000e+00   2.9013101e-03   0.0000000e+00   0.0000000e+00   0.0000000e+00  -1.3919224e-03  -9.3790682e-04  -3.2086760e-03  -5.8737779e-04  -9.9961890e-04  -1.7271500e-03  -3.4359357e-04   0.0000000e+00  -1.3193498e-05   5.5155656e-04   0.0000000e+00  -1.0929908e-03   0.0000000e+00   0.0000000e+00   0.0000000e+00   0.0000000e+00   0.0000000e+00   0.0000000e+00   0.0000000e+00
   3.2123924e-06   6.9483198e-05  -1.0032856e-04  -2.6354457e-04  -6.4598635e-05   0.0000000e+00   7.5592264e-05   0.0000000e+00   1.8830089e-06  -1.0944908e-04   0.0000000e+00   0.0000000e+00   4.5028289e-04   0.0000000e+00   0.0000000e+00  -1.4187113e-04   0.0000000e+00   0.0000000e+00   0.0000000e+00   7.4760438e-05   4.3357492e-05   2.8405072e-05   5.1548982e-05  -1.1330348e-04  -6.2336540e-05   2.0069523e-05   0.0000000e+00  -1.9250047e-05  -5.2389162e-05   0.0000000e+00   2.9220032e-05   0.0000000e+00   0.0000000e+00   0.0000000e+00   0.0000000e+00   0.0000000e+00   0.0000000e+00   0.0000000e+00   6.0913881e-08  -3.6390234e-04  -1.2500739e-04   7.5026652e-05   7.6201579e-05   0.0000000e+00   1.7847536e-04   0.0000000e+00  -1.4169349e-04  -9.8801235e-05   0.0000000e+00   0.0000000e+00   8.9043229e-06   0.0000000e+00   0.0000000e+00  -3.3193371e-04   0.0000000e+00   0.0000000e+00   0.0000000e+00  -3.8564436e-05  -5.1249337e-05   1.6490844e-04  -4.5157354e-05   9.5905418e-05   4.8087501e-05  -1.5770353e-05   0.0000000e+00   3.6812680e-05  -1.0396235e-04   0.0000000e+00  -1.9451276e-04   0.0000000e+00   0.0000000e+00   0.0000000e+00   0.0000000e+00   0.0000000e+00   0.0000000e+00   0.0000000e+00   1.7247045e-04   5.6192794e-04   4.2311284e-04   1.7977762e-04  -1.2601576e-04   0.0000000e+00   2.0945916e-04   0.0000000e+00   2.0616663e-04   6.2069825e-04   0.0000000e+00   0.0000000e+00  -8.2110129e-04   0.0000000e+00   0.0000000e+00   7.1121556e-04   0.0000000e+00   0.0000000e+00   0.0000000e+00   1.7973097e-04   4.4567544e-05   1.4725901e-04   5.2520792e-04   5.7744562e-04   3.8603692e-04   5.8885629e-04   0.0000000e+00   6.3682065e-04   1.3823977e-04   0.0000000e+00   2.6540441e-04   0.0000000e+00   0.0000000e+00   0.0000000e+00   0.0000000e+00   0.0000000e+00   0.0000000e+00   0.0000000e+00  -1.0406874e-04  -4.1929930e-05   2.6986981e-05  -1.3918626e-04  -6.2570216e-05   0.0000000e+00  -2.2663624e-04   0.0000000e+00   7.8702240e-05   1.0498314e-04   0.0000000e+00   0.0000000e+00  -2.4539893e-04   0.0000000e+00   0.0000000e+00   2.5075022e-04   0.0000000e+00   0.0000000e+00   0.0000000e+00  -4.1057109e-05  -7.1872922e-05  -1.1705942e-04  -6.5658168e-05   1.8135275e-05  -8.3465747e-05   2.8250063e-05   0.0000000e+00   3.6464308e-05   8.4782335e-05   0.0000000e+00  -1.2849694e-04   0.0000000e+00   0.0000000e+00   0.0000000e+00   0.0000000e+00   0.0000000e+00   0.0000000e+00   0.0000000e+00   2.5435501e-05  -1.2991655e-04   5.4449903e-06  -1.5494517e-05  -1.9050388e-06   0.0000000e+00   1.9654821e-04   0.0000000e+00  -1.1966493e-04  -1.1436470e-04   0.0000000e+00   0.0000000e+00  -1.3940155e-04   0.0000000e+00   0.0000000e+00  -1.5399760e-04   0.0000000e+00   0.0000000e+00   0.0000000e+00  -1.7087012e-04   8.6399579e-05   5.3051286e-05   5.8047786e-05   5.1139676e-05   7.2494893e-05   9.6150806e-05   0.0000000e+00  -1.1801893e-04  -1.2533177e-04   0.0000000e+00  -1.4179135e-04   0.0000000e+00   0.0000000e+00   0.0000000e+00   0.0000000e+00   0.0000000e+00   0.0000000e+00   0.0000000e+00   9.2134956e-05  -3.1793098e-04   2.8193395e-05  -3.7583545e-06   8.8135568e-05   0.0000000e+00   1.2289854e-04   0.0000000e+00  -6.1149381e-05  -7.3157038e-05   0.0000000e+00   0.0000000e+00   7.7761496e-06   0.0000000e+00   0.0000000e+00  -1.4908710e-04   0.0000000e+00   0.0000000e+00   0.0000000e+00  -2.4072976e-05  -1.1115903e-05   2.9787877e-04  -1.2772531e-04  -5.3157560e-05   2.0083131e-05  -1.0092259e-04   0.0000000e+00  -1.3204300e-04  -1.8773413e-04   0.0000000e+00   8.0275681e-05   0.0000000e+00   0.0000000e+00   0.0000000e+00   0.0000000e+00   0.0000000e+00   0.0000000e+00   0.0000000e+00  -6.9218925e-05  -4.3635524e-04  -1.4993611e-05  -3.1656337e-04   2.1313696e-04   0.0000000e+00  -2.3267508e-04   0.0000000e+00  -2.1652452e-05  -3.3732072e-04   0.0000000e+00   0.0000000e+00  -7.4918533e-04   0.0000000e+00   0.0000000e+00  -1.8440821e-04   0.0000000e+00   0.0000000e+00   0.0000000e+00  -1.6579944e-04  -1.8429458e-04   2.6486369e-04  -2.7875581e-04  -1.0621267e-04   2.2995074e-04  -3.2516465e-04   0.0000000e+00  -4.4571376e-04  -3.1799043e-04   0.0000000e+00   2.3860054e-04   0.0000000e+00   0.0000000e+00   0.0000000e+00   0.0000000e+00   0.0000000e+00   0.0000000e+00   0.0000000e+00  -9.1543450e-05  -2.7994403e-04  -3.7630008e-04   2.9244383e-05  -3.7032730e-05   0.0000000e+00   1.0518825e-04   0.0000000e+00  -3.2389849e-04  -1.2386256e-04   0.0000000e+00   0.0000000e+00   3.6154759e-06   0.0000000e+00   0.0000000e+00  -7.9165854e-04   0.0000000e+00   0.0000000e+00   0.0000000e+00  -1.5009190e-04   9.8906345e-05   4.5292024e-05  -1.2304747e-06  -1.1441679e-04   7.2287309e-05  -7.0717935e-05   0.0000000e+00  -1.7572946e-04  -3.5401840e-04   0.0000000e+00  -1.9521007e-04   0.0000000e+00   0.0000000e+00   0.0000000e+00   0.0000000e+00   0.0000000e+00   0.0000000e+00   0.0000000e+00  -1.0742250e-04  -2.6604243e-04  -1.6818179e-04   5.4622316e-05   1.1136367e-05   0.0000000e+00   3.3708071e-04   0.0000000e+00  -2.4042243e-04  -7.0603501e-05   0.0000000e+00   0.0000000e+00   5.8017516e-07   0.0000000e+00   0.0000000e+00  -3.3652011e-04   0.0000000e+00   0.0000000e+00   0.0000000e+00  -3.1529858e-05  -8.7768519e-05  -2.1649019e-04  -2.0395677e-04  -2.5417597e-04   2.2467287e-04  -1.0398689e-04   0.0000000e+00   1.8056948e-05   8.6657804e-05   0.0000000e+00  -3.7332485e-05   0.0000000e+00   0.0000000e+00   0.0000000e+00   0.0000000e+00   0.0000000e+00   0.0000000e+00   0.0000000e+00  -3.6321528e-04  -5.6172557e-06  -1.6056907e-04  -2.9417893e-04  -2.1033576e-04   0.0000000e+00  -5.5991010e-04   0.0000000e+00   7.8385944e-05   8.6309376e-05   0.0000000e+00   0.0000000e+00  -8.2344083e-04   0.0000000e+00   0.0000000e+00   9.4590759e-06   0.0000000e+00   0.0000000e+00   0.0000000e+00  -2.5688911e-04   1.7147721e-04  -3.3931575e-04   1.5026048e-04  -1.9620977e-04  -3.5414611e-04   1.6533905e-04   0.0000000e+00  -1.2107813e-04   7.4351384e-05   0.0000000e+00  -2.3696292e-04   0.0000000e+00   0.0000000e+00   0.0000000e+00   0.0000000e+00   0.0000000e+00   0.0000000e+00   0.0000000e+00  -1.6025904e-03  -1.6864799e-03  -8.6799915e-04  -8.6262527e-05  -1.5419558e-03   0.0000000e+00  -2.9231372e-04   0.0000000e+00   1.5621538e-04   1.1671713e-03   0.0000000e+00   0.0000000e+00  -2.3905766e-03   0.0000000e+00   0.0000000e+00   2.9949892e-03   0.0000000e+00   0.0000000e+00   0.0000000e+00  -1.3215618e-03  -7.9605062e-04  -3.2739386e-03  -5.6208788e-04  -1.0748319e-03  -1.7971928e-03  -3.0729629e-04   0.0000000e+00  -7.8268935e-05   5.7624250e-04   0.0000000e+00  -1.1238660e-03   0.0000000e+00   0.0000000e+00   0.0000000e+00   0.0000000e+00   0.0000000e+00   0.0000000e+00   0.0000000e+00
  -4.7334085e-06   4.3463036e-05  -1.1342655e-04  -2.7869086e-04  -6.5150015e-05   0.0000000e+00   6.4677933e-05   0.0000000e+00  -1.4372717e-05  -1.1772115e-04   0.0000000e+00   0.0000000e+00   4.3643375e-04   0.0000000e+00   0.0000000e+00  -1.6813175e-04   0.0000000e+00   0.0000000e+00   0.0000000e+00   6.7260799e-05   4.1344192e-05   3.7319431e-05   4.4210939e-05  -1.2315383e-04  -6.0298574e-05   1.5074098e-05   0.0000000e+00  -2.6873463e-05  -6.9985984e-05   0.0000000e+00   1.1900990e-05   0.0000000e+00   0.0000000e+00   0.0000000e+00   0.0000000e+00   0.0000000e+00   0.0000000e+00   0.0000000e+00   3.2479227e-05  -3.4991873e-04  -1.1901360e-04   1.0798251e-04   1.1009382e-04   0.0000000e+00   2.0944271e-04   0.0000000e+00  -1.4493373e-04  -7.8792885e-05   0.0000000e+00   0.0000000e+00   5.0593667e-06   0.0000000e+00   0.0000000e+00  -3.2469383e-04   0.0000000e+00   0.0000000e+00   0.0000000e+00  -3.1791218e-05  -4.8428215e-05   1.8449781e-04  -4.4925682e-05   1.2020107e-04   7.8258778e-05  -1.4147937e-05   0.0000000e+00   4.7473514e-05  -1.0287732e-04   0.0000000e+00  -2.0288911e-04   0.0000000e+00   0.0000000e+00   0.0000000e+00   0.0000000e+00   0.0000000e+00   0.0000000e+00   0.0000000e+00   1.6024457e-04   5.3377208e-04   4.2864780e-04   1.3207219e-04  -1.6252151e-04   0.0000000e+00   2.9470381e-04   0.0000000e+00   3.0689929e-04   5.6942871e-04   0.0000000e+00   0.0000000e+00  -8.6770117e-04   0.0000000e+00   0.0000000e+00   7.8484849e-04   0.0000000e+00   0.0000000e+00   0.0000000e+00   2.0467295e-04   1.9042299e-04   1.7823631e-04   5.7153976e-04   5.6949573e-04   4.0998251e-04   6.7409827e-04   0.0000000e+00   5.4275288e-04   1.1132660e-04   0.0000000e+00   2.4605478e-04   0.0000000e+00   0.0000000e+00   0.0000000e+00   0.0000000e+00   0.0000000e+00   0.0000000e+00   0.0000000e+00  -1.0371419e-04  -5.1085748e-05   2.5066208e-05  -1.1494773e-04  -5.1471938e-05   0.0000000e+00  -2.3373971e-04   0.0000000e+00   6.0978833e-05   1.2062144e-04   0.0000000e+00   0.0000000e+00  -2.4261296e-04   0.0000000e+00   0.0000000e+00   2.3189505e-04   0.0000000e+00   0.0000000e+00   0.0000000e+00  -3.8669543e-05  -7.2001419e-05  -1.1521114e-04  -7.0350789e-05   1.9765002e-05  -7.9315812e-05   2.6928331e-05   0.0000000e+00   4.0011240e-05   8.9910730e-05   0.0000000e+00  -1.4981299e-04   0.0000000e+00   0.0000000e+00   0.0000000e+00   0.0000000e+00   0.0000000e+00   0.0000000e+00   0.0000000e+00   9.4615537e-06  -1.4607862e-04   1.4777651e-05  -1.0869212e-05  -5.8105209e-06   0.0000000e+00   1.7123230e-04   0.0000000e+00  -1.1800331e-04  -8.8441162e-05   0.0000000e+00   0.0000000e+00  -1.9121316e-04   0.0000000e+00   0.0000000e+00  -1.1711621e-04   0.0000000e+00   0.0000000e+00   0.0000000e+00  -1.8303961e-04   4.8938582e-05   3.5400374e-05   3.7785601e-05   7.0430502e-05   7.4390662e-05   7.0939384e-05   0.0000000e+00  -1.1322061e-04  -1.2604153e-04   0.0000000e+00  -1.5278168e-04   0.0000000e+00   0.0000000e+00   0.0000000e+00   0.0000000e+00   0.0000000e+00   0.0000000e+00   0.0000000e+00   8.9169302e-05  -3.1234241e-04   3.8347940e-05   1.1826873e-06   8.9607014e-05   0.0000000e+00   1.2720606e-04   0.0000000e+00  -5.5744364e-05  -6.5298134e-05   0.0000000e+00   0.0000000e+00  -3.2348102e-05   0.0000000e+00   0.0000000e+00  -1.3236500e-04   0.0000000e+00   0.0000000e+00   0.0000000e+00  -2.6750994e-05  -9.5012970e-06   2.8607966e-04  -1.2810130e-04  -6.3425597e-05   9.0654946e-06  -1.0163534e-04   0.0000000e+00  -1.3044617e-04  -1.7115279e-04   0.0000000e+00   8.1147167e-05   0.0000000e+00   0.0000000e+00   0.0000000e+00   0.0000000e+00   0.0000000e+00   0.0000000e+00   0.0000000e+00  -7.0603148e-05  -4.5199276e-04  -1.2062893e-05  -3.2204426e-04   2.2057293e-04   0.0000000e+00  -2.4120532e-04   0.0000000e+00  -1.5188859e-05  -3.7501669e-04   0.0000000e+00   0.0000000e+00  -7.9372324e-04   0.0000000e+00   0.0000000e+00  -2.0073580e-04   0.0000000e+00   0.0000000e+00   0.0000000e+00  -1.6014381e-04  -1.9342816e-04   2.5709569e-04  -3.0840624e-04  -1.0062237e-04   2.2208475e-04  -3.3604937e-04   0.0000000e+00  -4.4711360e-04  -2.9114374e-04   0.0000000e+00   2.3825483e-04   0.0000000e+00   0.0000000e+00   0.0000000e+00   0.0000000e+00   0.0000000e+00   0.0000000e+00   0.0000000e+00  -8.3608353e-05  -2.8076157e-04  -3.7703787e-04   7.3629086e-05  -2.2108898e-05   0.0000000e+00   9.9158041e-05   0.0000000e+00  -3.4499492e-04  -1.2689515e-04   0.0000000e+00   0.0000000e+00  -1.2323218e-05   0.0000000e+00   0.0000000e+00  -8.1006804e-04   0.0000000e+00   0.0000000e+00   0.0000000e+00  -1.4993953e-04   9.8181945e-05   4.3730096e-05  -1.3839699e-06  -9.8514557e-05   8.0131521e-05  -7.0480477e-05   0.0000000e+00  -1.6990327e-04  -3.6088068e-04   0.0000000e+00  -2.0672358e-04   0.0000000e+00   0.0000000e+00   0.0000000e+00   0.0000000e+00   0.0000000e+00   0.0000000e+00   0.0000000e+00  -9.9735917e-05  -2.9957720e-04  -1.4542649e-04   7.2660579e-05  -7.0121702e-06   0.0000000e+00   3.3609607e-04   0.0000000e+00  -2.3594006e-04  -9.8422019e-05   0.0000000e+00   0.0000000e+00  -1.0367172e-05   0.0000000e+00   0.0000000e+00  -2.9490937e-04   0.0000000e+00   0.0000000e+00   0.0000000e+00  -5.7259507e-05  -1.0247061e-04  -2.1724063e-04  -2.1979104e-04  -2.6566020e-04   2.2574584e-04  -1.5507855e-04   0.0000000e+00  -1.4101097e-05   7.4113609e-05   0.0000000e+00   2.6428378e-06   0.0000000e+00   0.0000000e+00   0.0000000e+00   0.0000000e+00   0.0000000e+00   0.0000000e+00   0.0000000e+00  -3.7516244e-04  -8.8708491e-06  -1.6599518e-04  -2.9628155e-04  -2.0226945e-04   0.0000000e+00  -6.2874515e-04   0.0000000e+00   8.1806917e-05   9.2773002e-05   0.0000000e+00   0.0000000e+00  -8.9875525e-04   0.0000000e+00   0.0000000e+00   5.2790551e-05   0.0000000e+00   0.0000000e+00   0.0000000e+00  -2.7954546e-04   1.7315175e-04  -3.6785959e-04   1.5544950e-04  -2.1264927e-04  -3.7338134e-04   1.6992780e-04   0.0000000e+00  -1.3278349e-04   8.2255649e-05   0.0000000e+00  -2.7761370e-04   0.0000000e+00   0.0000000e+00   0.0000000e+00   0.0000000e+00   0.0000000e+00   0.0000000e+00   0.0000000e+00  -1.6298160e-03  -1.7607322e-03  -8.8521000e-04  -1.0390625e-04  -1.6087091e-03   0.0000000e+00  -1.9952414e-04   0.0000000e+00   1.7009868e-04   1.0828548e-03   0.0000000e+00   0.0000000e+00  -2.3965599e-03   0.0000000e+00   0.0000000e+00   3.0389075e-03   0.0000000e+00   0.0000000e+00   0.0000000e+00  -1.2406108e-03  -6.4172025e-04  -3.3168233e-03  -5.3186434e-04  -1.1495202e-03  -1.8568306e-03  -2.7500846e-04   0.0000000e+00  -1.4869734e-04   5.9506021e-04   0.0000000e+00  -1.1429152e-03   0.0000000e+00   0.0000000e+00   0.0000000e+00   0.0000000e+00   0.0000000e+00   0.0000000e+00   0.0000000e+00
  -1.2205270e-05   1.6850484e-05  -1.2516627e-04  -2.8980234e-04  -6.5265040e-05   0.0000000e+00   5.2942715e-05   0.0000000e+00  -3.0730947e-05  -1.2470077e-04   0.0000000e+00   0.0000000e+00   4.1662307e-04   0.0000000e+00   0.0000000e+00  -1.9337313e-04   0.0000000e+00   0.0000000e+00   0.0000000e+00   5.9043121e-05   3.8689976e-05   4.5939218e-05   3.5738270e-05  -1.3124254e-04  -5.8257153e-05   9.8510037e-06   0.0000000e+00  -3.3658184e-05  -8.6095730e-05   0.0000000e+00  -5.0697280e-06   0.0000000e+00   0.0000000e+00   0.0000000e+00   0.0000000e+00   0.0000000e+00   0.0000000e+00   0.0000000e+00   6.5999348e-05  -3.2883121e-04  -1.1127405e-04   1.4304677e-04   1.4254887e-04   0.0000000e+00   2.4057179e-04   0.0000000e+00  -1.4608517e-04  -5.4632019e-05   0.0000000e+00   0.0000000e+00   4.3706810e-06   0.0000000e+00   0.0000000e+00  -3.1291632e-04   0.0000000e+00   0.0000000e+00   0.0000000e+00  -2.2854904e-05  -4.3081274e-05   2.0092374e-04  -4.2158482e-05   1.4676781e-04   1.0966047e-04  -9.9897497e-06   0.0000000e+00   5.9768794e-05  -1.0078540e-04   0.0000000e+00  -2.0986249e-04   0.0000000e+00   0.0000000e+00   0.0000000e+00   0.0000000e+00   0.0000000e+00   0.0000000e+00   0.0000000e+00   1.4509964e-04   4.8626112e-04   4.0015958e-04   7.6625205e-05  -2.0686260e-04   0.0000000e+00   3.9689627e-04   0.0000000e+00   4.0574347e-04   4.9331602e-04   0.0000000e+00   0.0000000e+00  -8.9659095e-04   0.0000000e+00   0.0000000e+00   8.3663526e-04   0.0000000e+00   0.0000000e+00   0.0000000e+00   2.2573315e-04   3.6435052e-04   2.1601902e-04   6.1541640e-04   5.4350892e-04   4.1685252e-04   7.5269636e-04   0.0000000e+00   4.1856846e-04   8.4762586e-05   0.0000000e+00   2.0588370e-04   0.0000000e+00   0.0000000e+00   0.0000000e+00   0.0000000e+00   0.0000000e+00   0.0000000e+00   0.0000000e+00  -1.0122347e-04  -6.0148611e-05   2.4243655e-05  -8.9236771e-05  -3.8728350e-05   0.0000000e+00  -2.3763152e-04   0.0000000e+00   4.2914824e-05   1.3521674e-04   0.0000000e+00   0.0000000e+00  -2.3092834e-04   0.0000000e+00   0.0000000e+00   2.1020667e-04   0.0000000e+00   0.0000000e+00   0.0000000e+00  -3.4794928e-05  -7.0099577e-05  -1.0952309e-04  -7.3658287e-05   2.1198311e-05  -7.2960433e-05   2.5759182e-05   0.0000000e+00   4.2799401e-05   9.3446248e-05   0.0000000e+00  -1.7027570e-04   0.0000000e+00   0.0000000e+00   0.0000000e+00   0.0000000e+00   0.0000000e+00   0.0000000e+00   0.0000000e+00  -9.7521148e-06  -1.6306149e-04   2.4512891e-05  -7.5774418e-06  -1.2283324e-05   0.0000000e+00   1.4098254e-04   0.0000000e+00  -1.1390128e-04  -6.0490888e-05   0.0000000e+00   0.0000000e+00  -2.4719625e-04   0.0000000e+00   0.0000000e+00  -7.0767341e-05   0.0000000e+00   0.0000000e+00   0.0000000e+00  -1.9595942e-04   5.7936545e-06   1.2656693e-05   1.4263497e-05   8.9405587e-05   7.2438755e-05   4.2594032e-05   0.0000000e+00  -1.0692879e-04  -1.2572119e-04   0.0000000e+00  -1.6173729e-04   0.0000000e+00   0.0000000e+00   0.0000000e+00   0.0000000e+00   0.0000000e+00   0.0000000e+00   0.0000000e+00   8.7153186e-05  -3.0085004e-04   4.8672795e-05   7.7599223e-06   9.0240265e-05   0.0000000e+00   1.3482103e-04   0.0000000e+00  -5.1034785e-05  -5.8544231e-05   0.0000000e+00   0.0000000e+00  -6.2083747e-05   0.0000000e+00   0.0000000e+00  -1.1583606e-04   0.0000000e+00   0.0000000e+00   0.0000000e+00  -2.7827170e-05  -5.0889952e-06   2.7110066e-04  -1.2504171e-04  -7.2765215e-05   9.3877322e-07  -9.9422449e-05   0.0000000e+00  -1.2643783e-04  -1.5398584e-04   0.0000000e+00   8.0902770e-05   0.0000000e+00   0.0000000e+00   0.0000000e+00   0.0000000e+00   0.0000000e+00   0.0000000e+00   0.0000000e+00  -7.3600682e-05  -4.6599172e-04  -1.4958895e-05  -3.2920468e-04   2.2821081e-04   0.0000000e+00  -2.4922870e-04   0.0000000e+00  -1.5152425e-05  -4.1395371e-04   0.0000000e+00   0.0000000e+00  -8.1847864e-04   0.0000000e+00   0.0000000e+00  -2.2881350e-04   0.0000000e+00   0.0000000e+00   0.0000000e+00  -1.5208774e-04  -2.0396422e-04   2.5063605e-04  -3.3609107e-04  -9.6417955e-05   2.1266628e-04  -3.4646912e-04   0.0000000e+00  -4.4653501e-04  -2.6452670e-04   0.0000000e+00   2.2969119e-04   0.0000000e+00   0.0000000e+00   0.0000000e+00   0.0000000e+00   0.0000000e+00   0.0000000e+00   0.0000000e+00  -7.0645331e-05  -2.7580925e-04  -3.6821030e-04   1.2093032e-04  -3.1519715e-06   0.0000000e+00   9.3980843e-05   0.0000000e+00  -3.5946868e-04  -1.2969502e-04   0.0000000e+00   0.0000000e+00  -2.1799279e-05   0.0000000e+00   0.0000000e+00  -8.1447013e-04   0.0000000e+00   0.0000000e+00   0.0000000e+00  -1.4472161e-04   9.6077490e-05   4.5106832e-05  -2.5480555e-06  -7.8487621e-05   8.9151967e-05  -6.8892364e-05   0.0000000e+00  -1.6068301e-04  -3.6387241e-04   0.0000000e+00  -2.1298637e-04   0.0000000e+00   0.0000000e+00   0.0000000e+00   0.0000000e+00   0.0000000e+00   0.0000000e+00   0.0000000e+00  -9.8726567e-05  -3.3429930e-04  -1.2697169e-04   8.3893203e-05  -3.1196988e-05   0.0000000e+00   3.2703744e-04   0.0000000e+00  -2.2996961e-04  -1.2917832e-04   0.0000000e+00   0.0000000e+00  -2.7424462e-05   0.0000000e+00   0.0000000e+00  -2.6248759e-04   0.0000000e+00   0.0000000e+00   0.0000000e+00  -8.5680692e-05  -1.1990054e-04  -2.2207303e-04  -2.3675374e-04  -2.8094631e-04   2.1566698e-04  -2.0775873e-04   0.0000000e+00  -4.8185100e-05   6.2489903e-05   0.0000000e+00   3.8290979e-05   0.0000000e+00   0.0000000e+00   0.0000000e+00   0.0000000e+00   0.0000000e+00   0.0000000e+00   0.0000000e+00  -3.8739207e-04  -1.3032695e-05  -1.7059751e-04  -2.9773469e-04  -1.9631418e-04   0.0000000e+00  -6.9782830e-04   0.0000000e+00   8.4959350e-05   1.0066388e-04   0.0000000e+00   0.0000000e+00  -9.6062240e-04   0.0000000e+00   0.0000000e+00   9.9831379e-05   0.0000000e+00   0.0000000e+00   0.0000000e+00  -3.0295488e-04   1.7242443e-04  -3.9732301e-04   1.5857801e-04  -2.2536467e-04  -3.8831409e-04   1.7171420e-04   0.0000000e+00  -1.4288763e-04   8.8750318e-05   0.0000000e+00  -3.2716541e-04   0.0000000e+00   0.0000000e+00   0.0000000e+00   0.0000000e+00   0.0000000e+00   0.0000000e+00   0.0000000e+00  -1.6485829e-03  -1.8255350e-03  -9.0442810e-04  -1.2406161e-04  -1.6756663e-03   0.0000000e+00  -1.0932974e-04   0.0000000e+00   1.7438439e-04   9.7823935e-04   0.0000000e+00   0.0000000e+00  -2.3615127e-03   0.0000000e+00   0.0000000e+00   3.0354633e-03   0.0000000e+00   0.0000000e+00   0.0000000e+00  -1.1554117e-03  -4.8203443e-04  -3.3433228e-03  -4.9788964e-04  -1.2226773e-03  -1.9072216e-03  -2.4827587e-04   0.0000000e+00  -2.2135632e-04   6.0781171e-04   0.0000000e+00  -1.1519529e-03   0.0000000e+00   0.0000000e+00   0.0000000e+00   0.0000000e+00   0.0000000e+00   0.0000000e+00   0.0000000e+00
  -1.9153010e-05  -9.6257877e-06  -1.3526170e-04  -2.9687369e-04  -6.5128203e-05   0.0000000e+00   4.0615600e-05   0.0000000e+00  -4.6548798e-05  -1.3032705e-04   0.0000000e+00   0.0000000e+00   3.9177931e-04   0.0000000e+00   0.0000000e+00  -2.1654601e-04   0.0000000e+00   0.0000000e+00   0.0000000e+00   5.0286933e-05   3.5303234e-05   5.3788307e-05   2.6204223e-05  -1.3750788e-04  -5.6586750e-05   4.4104842e-06   0.0000000e+00  -3.9429040e-05  -1.0007122e-04   0.0000000e+00  -2.0883280e-05   0.0000000e+00   0.0000000e+00   0.0000000e+00   0.0000000e+00   0.0000000e+00   0.0000000e+00   0.0000000e+00   9.9713954e-05  -3.0171218e-04  -1.0199488e-04   1.7938798e-04   1.7283676e-04   0.0000000e+00   2.7088605e-04   0.0000000e+00  -1.4522416e-04  -2.6528253e-05   0.0000000e+00   0.0000000e+00   6.2643299e-06   0.0000000e+00   0.0000000e+00  -2.9712579e-04   0.0000000e+00   0.0000000e+00   0.0000000e+00  -1.1797284e-05  -3.5035745e-05   2.1420631e-04  -3.6813209e-05   1.7507743e-04   1.4137161e-04  -3.1255772e-06   0.0000000e+00   7.3425874e-05  -9.7846996e-05   0.0000000e+00  -2.1551372e-04   0.0000000e+00   0.0000000e+00   0.0000000e+00   0.0000000e+00   0.0000000e+00   0.0000000e+00   0.0000000e+00   1.2628832e-04   4.2195854e-04   3.3587748e-04   1.5333411e-05  -2.5833627e-04   0.0000000e+00   5.1151250e-04   0.0000000e+00   4.9684527e-04   3.9595882e-04   0.0000000e+00   0.0000000e+00  -9.1384477e-04   0.0000000e+00   0.0000000e+00   8.6220309e-04   0.0000000e+00   0.0000000e+00   0.0000000e+00   2.4170132e-04   5.5969143e-04   2.5776998e-04   6.5441624e-04   5.0114213e-04   4.0542601e-04   8.2213112e-04   0.0000000e+00   2.7044469e-04   6.1138691e-05   0.0000000e+00   1.4081859e-04   0.0000000e+00   0.0000000e+00   0.0000000e+00   0.0000000e+00   0.0000000e+00   0.0000000e+00   0.0000000e+00  -9.6832210e-05  -6.8607359e-05   2.4689064e-05  -6.3160463e-05  -2.4957564e-05   0.0000000e+00  -2.3857704e-04   0.0000000e+00   2.5558554e-05   1.4838610e-04   0.0000000e+00   0.0000000e+00  -2.1074772e-04   0.0000000e+00   0.0000000e+00   1.8679098e-04   0.0000000e+00   0.0000000e+00   0.0000000e+00  -2.9621988e-05  -6.6333995e-05  -1.0025504e-04  -7.5460023e-05   2.2512223e-05  -6.4606119e-05   2.4836417e-05   0.0000000e+00   4.4733837e-05   9.5371286e-05   0.0000000e+00  -1.8910450e-04   0.0000000e+00   0.0000000e+00   0.0000000e+00   0.0000000e+00   0.0000000e+00   0.0000000e+00   0.0000000e+00  -3.2076375e-05  -1.8066751e-04   3.4402646e-05  -6.2434168e-06  -2.1654178e-05   0.0000000e+00   1.0612742e-04   0.0000000e+00  -1.0734751e-04  -3.1500985e-05   0.0000000e+00   0.0000000e+00  -3.0786226e-04   0.0000000e+00   0.0000000e+00  -1.5155472e-05   0.0000000e+00   0.0000000e+00   0.0000000e+00  -2.0981790e-04  -4.1691339e-05  -1.5200162e-05  -1.1904585e-05   1.0731058e-04   6.6007155e-05   1.1918477e-05   0.0000000e+00  -9.9819708e-05  -1.2461674e-04   0.0000000e+00  -1.6872451e-04   0.0000000e+00   0.0000000e+00   0.0000000e+00   0.0000000e+00   0.0000000e+00   0.0000000e+00   0.0000000e+00   8.6419625e-05  -2.8428401e-04   5.9015607e-05   1.5773190e-05   9.0089923e-05   0.0000000e+00   1.4598801e-04   0.0000000e+00  -4.7154856e-05  -5.3202277e-05   0.0000000e+00   0.0000000e+00  -8.0096155e-05   0.0000000e+00   0.0000000e+00  -1.0002381e-04   0.0000000e+00   0.0000000e+00   0.0000000e+00  -2.7307398e-05   2.0940286e-06   2.5413324e-04  -1.1861078e-04  -8.0635449e-05  -3.6846153e-06  -9.4387586e-05   0.0000000e+00  -1.2036846e-04  -1.3726513e-04   0.0000000e+00   7.9763152e-05   0.0000000e+00   0.0000000e+00   0.0000000e+00   0.0000000e+00   0.0000000e+00   0.0000000e+00   0.0000000e+00  -7.8653090e-05  -4.7796208e-04  -2.3772002e-05  -3.3844468e-04   2.3540482e-04   0.0000000e+00  -2.5760893e-04   0.0000000e+00  -2.1476635e-05  -4.5314320e-04   0.0000000e+00   0.0000000e+00  -8.2537977e-04   0.0000000e+00   0.0000000e+00  -2.6719764e-04   0.0000000e+00   0.0000000e+00   0.0000000e+00  -1.4255755e-04  -2.1575051e-04   2.4497863e-04  -3.6082639e-04  -9.4228669e-05   2.0184835e-04  -3.5634512e-04   0.0000000e+00  -4.4471229e-04  -2.3974569e-04   0.0000000e+00   2.1324852e-04   0.0000000e+00   0.0000000e+00   0.0000000e+00   0.0000000e+00   0.0000000e+00   0.0000000e+00   0.0000000e+00  -5.2703103e-05  -2.6524223e-04  -3.5014036e-04   1.7028942e-04   1.9306542e-05   0.0000000e+00   9.0762161e-05   0.0000000e+00  -3.6685839e-04  -1.3206975e-04   0.0000000e+00   0.0000000e+00  -2.3889382e-05   0.0000000e+00   0.0000000e+00  -8.0458178e-04   0.0000000e+00   0.0000000e+00   0.0000000e+00  -1.3450594e-04   9.2589516e-05   4.9740154e-05  -4.6613460e-06  -5.4802874e-05   9.9345746e-05  -6.6009019e-05   0.0000000e+00  -1.4814434e-04  -3.6328995e-04   0.0000000e+00  -2.1342270e-04   0.0000000e+00   0.0000000e+00   0.0000000e+00   0.0000000e+00   0.0000000e+00   0.0000000e+00   0.0000000e+00  -1.0546652e-04  -3.6936349e-04  -1.1380512e-04   8.7532986e-05  -6.1117210e-05   0.0000000e+00   3.0996956e-04   0.0000000e+00  -2.2294450e-04  -1.6216930e-04   0.0000000e+00   0.0000000e+00  -5.1905673e-05   0.0000000e+00   0.0000000e+00  -2.4042912e-04   0.0000000e+00   0.0000000e+00   0.0000000e+00  -1.1650881e-04  -1.4007803e-04  -2.3247271e-04  -2.5478470e-04  -3.0073001e-04   1.9493946e-04  -2.6073521e-04   0.0000000e+00  -8.3119856e-05   5.2324496e-05   0.0000000e+00   6.7637154e-05   0.0000000e+00   0.0000000e+00   0.0000000e+00   0.0000000e+00   0.0000000e+00   0.0000000e+00   0.0000000e+00  -4.0049618e-04  -1.8154673e-05  -1.7462045e-04  -2.9935780e-04  -1.9325097e-04   0.0000000e+00  -7.6594871e-04   0.0000000e+00   8.7827181e-05   1.1013082e-04   0.0000000e+00   0.0000000e+00  -1.0078366e-03   0.0000000e+00   0.0000000e+00   1.4890636e-04   0.0000000e+00   0.0000000e+00   0.0000000e+00  -3.2681385e-04   1.6940756e-04  -4.2721848e-04   1.5963536e-04  -2.3407245e-04  -3.9923995e-04   1.7065821e-04   0.0000000e+00  -1.5117658e-04   9.3728046e-05   0.0000000e+00  -3.8460998e-04   0.0000000e+00   0.0000000e+00   0.0000000e+00   0.0000000e+00   0.0000000e+00   0.0000000e+00   0.0000000e+00  -1.6620055e-03  -1.8804269e-03  -9.2770192e-04  -1.4579833e-04  -1.7451456e-03   0.0000000e+00  -2.6265898e-05   0.0000000e+00   1.6837825e-04   8.5967931e-04   0.0000000e+00   0.0000000e+00  -2.2875792e-03   0.0000000e+00   0.0000000e+00   2.9897918e-03   0.0000000e+00   0.0000000e+00   0.0000000e+00  -1.0723018e-03  -3.2412270e-04  -3.3599433e-03  -4.6121625e-04  -1.2931306e-03  -1.9497332e-03  -2.2797822e-04   0.0000000e+00  -2.9307061e-04   6.1441793e-04   0.0000000e+00  -1.1533157e-03   0.0000000e+00   0.0000000e+00   0.0000000e+00   0.0000000e+00   0.0000000e+00   0.0000000e+00   0.0000000e+00
  -2.5588469e-05  -3.5316919e-05  -1.4347667e-04  -3.0007198e-04  -6.4921879e-05   0.0000000e+00   2.7929602e-05   0.0000000e+00  -6.1208800e-05  -1.3459403e-04   0.0000000e+00   0.0000000e+00   3.6299752e-04   0.0000000e+00   0.0000000e+00  -2.3659484e-04   0.0000000e+00   0.0000000e+00   0.0000000e+00   4.1159277e-05   3.1109675e-05   6.0425073e-05   1.5729506e-05  -1.4196500e-04  -5.5597407e-05  -1.2560252e-06   0.0000000e+00  -4.4083021e-05  -1.1141132e-04   0.0000000e+00  -3.4817340e-05   0.0000000e+00   0.0000000e+00   0.0000000e+00   0.0000000e+00   0.0000000e+00   0.0000000e+00   0.0000000e+00   1.3280087e-04  -2.6991591e-04  -9.1412222e-05   2.1615188e-04   2.0045141e-04   0.0000000e+00   2.9940609e-04   0.0000000e+00  -1.4250582e-04   5.1091976e-06   0.0000000e+00   0.0000000e+00   1.0072183e-05   0.0000000e+00   0.0000000e+00  -2.7800997e-04   0.0000000e+00   0.0000000e+00   0.0000000e+00   1.3068306e-06  -2.4251174e-05   2.2465431e-04  -2.8994819e-05   2.0451068e-04   1.7255338e-04   6.4377665e-06   0.0000000e+00   8.8103692e-05  -9.4244196e-05   0.0000000e+00  -2.1998669e-04   0.0000000e+00   0.0000000e+00   0.0000000e+00   0.0000000e+00   0.0000000e+00   0.0000000e+00   0.0000000e+00   1.0313785e-04   3.4486144e-04   2.3669547e-04  -4.9454975e-05  -3.1528537e-04   0.0000000e+00   6.3230865e-04   0.0000000e+00   5.7439277e-04   2.8255918e-04   0.0000000e+00   0.0000000e+00  -9.2794616e-04   0.0000000e+00   0.0000000e+00   8.5857466e-04   0.0000000e+00   0.0000000e+00   0.0000000e+00   2.5179965e-04   7.6743978e-04   3.0013596e-04   6.8581473e-04   4.4561481e-04   3.7599505e-04   8.8035601e-04   0.0000000e+00   1.0649647e-04   4.3060401e-05   0.0000000e+00   4.7497742e-05   0.0000000e+00   0.0000000e+00   0.0000000e+00   0.0000000e+00   0.0000000e+00   0.0000000e+00   0.0000000e+00  -9.0872181e-05  -7.5959298e-05   2.6471009e-05  -3.7786270e-05  -1.0827334e-05   0.0000000e+00  -2.3692823e-04   0.0000000e+00   9.8833197e-06   1.5986214e-04   0.0000000e+00   0.0000000e+00  -1.8287390e-04   0.0000000e+00   0.0000000e+00   1.6281345e-04   0.0000000e+00   0.0000000e+00   0.0000000e+00  -2.3397997e-05  -6.0930534e-05  -8.7859976e-05  -7.5699449e-05   2.3783814e-05  -5.4569673e-05   2.4232353e-05   0.0000000e+00   4.5787799e-05   9.5776562e-05   0.0000000e+00  -2.0556145e-04   0.0000000e+00   0.0000000e+00   0.0000000e+00   0.0000000e+00   0.0000000e+00   0.0000000e+00   0.0000000e+00  -5.7252124e-05  -1.9858965e-04   4.4152745e-05  -7.3858112e-06  -3.4103169e-05   0.0000000e+00   6.7095429e-05   0.0000000e+00  -9.8484828e-05  -2.4316859e-06   0.0000000e+00   0.0000000e+00  -3.7343902e-04   0.0000000e+00   0.0000000e+00   4.8991209e-05   0.0000000e+00   0.0000000e+00   0.0000000e+00  -2.2467016e-04  -9.1895830e-05  -4.8030258e-05  -3.9905528e-05   1.2346677e-04   5.4691216e-05  -2.0133819e-05   0.0000000e+00  -9.2583626e-05  -1.2299471e-04   0.0000000e+00  -1.7407219e-04   0.0000000e+00   0.0000000e+00   0.0000000e+00   0.0000000e+00   0.0000000e+00   0.0000000e+00   0.0000000e+00   8.7212200e-05  -2.6366428e-04   6.9225640e-05   2.4932717e-05   8.9259177e-05   0.0000000e+00   1.6070873e-04   0.0000000e+00  -4.4161844e-05  -4.9430039e-05   0.0000000e+00   0.0000000e+00  -8.5919125e-05   0.0000000e+00   0.0000000e+00  -8.5363694e-05   0.0000000e+00   0.0000000e+00   0.0000000e+00  -2.5276413e-05   1.1840733e-05   2.3640012e-04  -1.0904139e-04  -8.6567499e-05  -4.4622777e-06  -8.6766578e-05   0.0000000e+00  -1.1267181e-04  -1.2189639e-04   0.0000000e+00   7.8038046e-05   0.0000000e+00   0.0000000e+00   0.0000000e+00   0.0000000e+00   0.0000000e+00   0.0000000e+00   0.0000000e+00  -8.6096324e-05  -4.8746452e-04  -3.8104869e-05  -3.5003169e-04   2.4139834e-04   0.0000000e+00  -2.6721314e-04   0.0000000e+00  -3.3519975e-05  -4.9150357e-04   0.0000000e+00   0.0000000e+00  -8.1749424e-04   0.0000000e+00   0.0000000e+00  -3.1337057e-04   0.0000000e+00   0.0000000e+00   0.0000000e+00  -1.3260011e-04  -2.2855579e-04   2.3932722e-04  -3.8178560e-04  -9.4582865e-05   1.8971472e-04  -3.6556521e-04   0.0000000e+00  -4.4236602e-04  -2.1820076e-04   0.0000000e+00   1.8970923e-04   0.0000000e+00   0.0000000e+00   0.0000000e+00   0.0000000e+00   0.0000000e+00   0.0000000e+00   0.0000000e+00  -3.0056064e-05  -2.4934453e-04  -3.2360030e-04   2.2080418e-04   4.4539694e-05   0.0000000e+00   9.0510752e-05   0.0000000e+00  -3.6700449e-04  -1.3379011e-04   0.0000000e+00   0.0000000e+00  -1.8210353e-05   0.0000000e+00   0.0000000e+00  -7.8073592e-04   0.0000000e+00   0.0000000e+00   0.0000000e+00  -1.1957005e-04   8.7815949e-05   5.7709229e-05  -7.5274143e-06  -2.8103008e-05   1.1063170e-04  -6.1903136e-05   0.0000000e+00  -1.3246393e-04  -3.5950426e-04   0.0000000e+00  -2.0766678e-04   0.0000000e+00   0.0000000e+00   0.0000000e+00   0.0000000e+00   0.0000000e+00   0.0000000e+00   0.0000000e+00  -1.2058727e-04  -4.0391123e-04  -1.0653540e-04   8.3200037e-05  -9.6128274e-05   0.0000000e+00   2.8529824e-04   0.0000000e+00  -2.1532247e-04  -1.9652565e-04   0.0000000e+00   0.0000000e+00  -8.4576701e-05   0.0000000e+00   0.0000000e+00  -2.2907668e-04   0.0000000e+00   0.0000000e+00   0.0000000e+00  -1.4936160e-04  -1.6287811e-04  -2.4963841e-04  -2.7372950e-04  -3.2541545e-04   1.6470428e-04  -3.1270663e-04   0.0000000e+00  -1.1787455e-04   4.3940388e-05   0.0000000e+00   8.9150638e-05   0.0000000e+00   0.0000000e+00   0.0000000e+00   0.0000000e+00   0.0000000e+00   0.0000000e+00   0.0000000e+00  -4.1500825e-04  -2.4257014e-05  -1.7834699e-04  -3.0199143e-04  -1.9365054e-04   0.0000000e+00  -8.3191966e-04   0.0000000e+00   9.0384071e-05   1.2117842e-04   0.0000000e+00   0.0000000e+00  -1.0399349e-03   0.0000000e+00   0.0000000e+00   1.9821773e-04   0.0000000e+00   0.0000000e+00   0.0000000e+00  -3.5076060e-04   1.6429033e-04  -4.5698269e-04   1.5869633e-04  -2.3872152e-04  -4.0670158e-04   1.6682160e-04   0.0000000e+00  -1.5754985e-04   9.7164805e-05   0.0000000e+00  -4.4840538e-04   0.0000000e+00   0.0000000e+00   0.0000000e+00   0.0000000e+00   0.0000000e+00   0.0000000e+00   0.0000000e+00  -1.6733261e-03  -1.9252666e-03  -9.5673487e-04  -1.6810325e-04  -1.8190303e-03   0.0000000e+00   4.5659155e-05   0.0000000e+00   1.5201012e-04   7.3407986e-04   0.0000000e+00   0.0000000e+00  -2.1783221e-03   0.0000000e+00   0.0000000e+00   2.9092227e-03   0.0000000e+00   0.0000000e+00   0.0000000e+00  -9.9719885e-04  -1.7468092e-04  -3.3732034e-03  -4.2274659e-04  -1.3596199e-03  -1.9858408e-03  -2.1428520e-04   0.0000000e+00  -3.6082325e-04   6.1490861e-04   0.0000000e+00  -1.1496738e-03   0.0000000e+00   0.0000000e+00   0.0000000e+00   0.0000000e+00   0.0000000e+00   0.0000000e+00   0.0000000e+00
  -3.1572689e-05  -5.9667582e-05  -1.4962793e-04  -2.9971229e-04  -6.4810786e-05   0.0000000e+00   1.5119974e-05   0.0000000e+00  -7.4148738e-05  -1.3753868e-04   0.0000000e+00   0.0000000e+00   3.3148567e-04   0.0000000e+00   0.0000000e+00  -2.5252127e-04   0.0000000e+00   0.0000000e+00   0.0000000e+00   3.1815453e-05   2.6068849e-05   6.5472235e-05   4.4910823e-06  -1.4469489e-04  -5.5509367e-05  -7.1646416e-06   0.0000000e+00  -4.7588702e-05  -1.1978178e-04   0.0000000e+00  -4.6277047e-05   0.0000000e+00   0.0000000e+00   0.0000000e+00   0.0000000e+00   0.0000000e+00   0.0000000e+00   0.0000000e+00   1.6456040e-04  -2.3499014e-04  -7.9788459e-05   2.5250853e-04   2.2512557e-04   0.0000000e+00   3.2520119e-04   0.0000000e+00  -1.3816098e-04   3.9669121e-05   0.0000000e+00   0.0000000e+00   1.5086313e-05   0.0000000e+00   0.0000000e+00  -2.5639324e-04   0.0000000e+00   0.0000000e+00   0.0000000e+00   1.6343161e-05  -1.0837236e-05   2.3281197e-04  -1.8948899e-05   2.3439484e-04   2.0250626e-04   1.8512618e-05   0.0000000e+00   1.0342685e-04  -9.0172872e-05   0.0000000e+00  -2.2346949e-04   0.0000000e+00   0.0000000e+00   0.0000000e+00   0.0000000e+00   0.0000000e+00   0.0000000e+00   0.0000000e+00   7.5147769e-05   2.6013152e-04   1.0619541e-04  -1.1508603e-04  -3.7509205e-04   0.0000000e+00   7.5157202e-04   0.0000000e+00   6.3301732e-04   1.5955288e-04   0.0000000e+00   0.0000000e+00  -9.4921000e-04   0.0000000e+00   0.0000000e+00   8.2441619e-04   0.0000000e+00   0.0000000e+00   0.0000000e+00   2.5580410e-04   9.7655523e-04   3.3951623e-04   7.0670819e-04   3.8151339e-04   3.3041671e-04   9.2590373e-04   0.0000000e+00  -6.3844699e-05   3.2952002e-05   0.0000000e+00  -7.6427299e-05   0.0000000e+00   0.0000000e+00   0.0000000e+00   0.0000000e+00   0.0000000e+00   0.0000000e+00   0.0000000e+00  -8.3742692e-05  -8.1750346e-05   2.9546564e-05  -1.4083156e-05   2.9852962e-06   0.0000000e+00  -2.3308016e-04   0.0000000e+00  -3.2871161e-06   1.6949748e-04   0.0000000e+00   0.0000000e+00  -1.4846708e-04   0.0000000e+00   0.0000000e+00   1.3941021e-04   0.0000000e+00   0.0000000e+00   0.0000000e+00  -1.6412137e-05  -5.4159285e-05  -7.2956241e-05  -7.4385445e-05   2.5075003e-05  -4.3264401e-05   2.3994080e-05   0.0000000e+00   4.6000748e-05   9.4846836e-05   0.0000000e+00  -2.1899878e-04   0.0000000e+00   0.0000000e+00   0.0000000e+00   0.0000000e+00   0.0000000e+00   0.0000000e+00   0.0000000e+00  -8.4870911e-05  -2.1640920e-04   5.3424386e-05  -1.1352973e-05  -4.9624863e-05   0.0000000e+00   2.4413858e-05   0.0000000e+00  -8.7623321e-05   2.5834224e-05   0.0000000e+00   0.0000000e+00  -4.4372126e-04   0.0000000e+00   0.0000000e+00   1.2036719e-04   0.0000000e+00   0.0000000e+00   0.0000000e+00  -2.4040919e-04  -1.4301193e-04  -8.5513782e-05  -6.8768399e-05   1.3730496e-04   3.8376238e-05  -5.2503041e-05   0.0000000e+00  -8.5863592e-05  -1.2112924e-04   0.0000000e+00  -1.7835195e-04   0.0000000e+00   0.0000000e+00   0.0000000e+00   0.0000000e+00   0.0000000e+00   0.0000000e+00   0.0000000e+00   8.9668098e-05  -2.4012578e-04   7.9152281e-05   3.4877174e-05   8.7895607e-05   0.0000000e+00   1.7872891e-04   0.0000000e+00  -4.2036256e-05  -4.7228425e-05   0.0000000e+00   0.0000000e+00  -7.9977324e-05   0.0000000e+00   0.0000000e+00  -7.2205605e-05   0.0000000e+00   0.0000000e+00   0.0000000e+00  -2.1888839e-05   2.3766211e-05   2.1907036e-04  -9.6726887e-05  -9.0198911e-05  -1.3412470e-06  -7.6906174e-05   0.0000000e+00  -1.0383825e-04  -1.0859511e-04   0.0000000e+00   7.6103278e-05   0.0000000e+00   0.0000000e+00   0.0000000e+00   0.0000000e+00   0.0000000e+00   0.0000000e+00   0.0000000e+00  -9.6129864e-05  -4.9407274e-04  -5.7099245e-05  -3.6409624e-04   2.4539851e-04   0.0000000e+00  -2.7880433e-04   0.0000000e+00  -5.0125014e-05  -5.2795027e-04   0.0000000e+00   0.0000000e+00  -7.9877884e-04   0.0000000e+00   0.0000000e+00  -3.6395900e-04   0.0000000e+00   0.0000000e+00   0.0000000e+00  -1.2329805e-04  -2.4209705e-04   2.3270570e-04  -3.9836437e-04  -9.7885782e-05   1.7629186e-04  -3.7401499e-04   0.0000000e+00  -4.4016478e-04  -2.0101573e-04   0.0000000e+00   1.6026545e-04   0.0000000e+00   0.0000000e+00   0.0000000e+00   0.0000000e+00   0.0000000e+00   0.0000000e+00   0.0000000e+00  -3.1893673e-06  -2.2850469e-04  -2.8977720e-04   2.7154185e-04   7.1657835e-05   0.0000000e+00   9.4075424e-05   0.0000000e+00  -3.6006154e-04  -1.3461874e-04   0.0000000e+00   0.0000000e+00  -4.9057733e-06   0.0000000e+00   0.0000000e+00  -7.4390927e-04   0.0000000e+00   0.0000000e+00   0.0000000e+00  -1.0036715e-04   8.1957275e-05   6.8845775e-05  -1.0821453e-05   8.0519524e-07   1.2284329e-04  -5.6662585e-05   0.0000000e+00  -1.1391496e-04  -3.5292550e-04   0.0000000e+00  -1.9558998e-04   0.0000000e+00   0.0000000e+00   0.0000000e+00   0.0000000e+00   0.0000000e+00   0.0000000e+00   0.0000000e+00  -1.4421024e-04  -4.3715532e-04  -1.0534106e-04   7.0932714e-05  -1.3524676e-04   0.0000000e+00   2.5373229e-04   0.0000000e+00  -2.0756135e-04  -2.3124511e-04   0.0000000e+00   0.0000000e+00  -1.2553877e-04   0.0000000e+00   0.0000000e+00  -2.2801189e-04   0.0000000e+00   0.0000000e+00   0.0000000e+00  -1.8374374e-04  -1.8802061e-04  -2.7434363e-04  -2.9334025e-04  -3.5505638e-04   1.2665745e-04  -3.6242580e-04   0.0000000e+00  -1.5151073e-04   3.7417063e-05   0.0000000e+00   1.0187345e-04   0.0000000e+00   0.0000000e+00   0.0000000e+00   0.0000000e+00   0.0000000e+00   0.0000000e+00   0.0000000e+00  -4.3135611e-04  -3.1329695e-05  -1.8207875e-04  -3.0643424e-04  -1.9784417e-04   0.0000000e+00  -8.9459979e-04   0.0000000e+00   9.2602843e-05   1.3366979e-04   0.0000000e+00   0.0000000e+00  -1.0571723e-03   0.0000000e+00   0.0000000e+00   2.4595329e-04   0.0000000e+00   0.0000000e+00   0.0000000e+00  -3.7439511e-04   1.5732399e-04  -4.8600631e-04   1.5591452e-04  -2.3949438e-04  -4.1143224e-04   1.6037050e-04   0.0000000e+00  -1.6202939e-04   9.9101660e-05   0.0000000e+00  -5.1658874e-04   0.0000000e+00   0.0000000e+00   0.0000000e+00   0.0000000e+00   0.0000000e+00   0.0000000e+00   0.0000000e+00  -1.6856712e-03  -1.9602636e-03  -9.9275235e-04  -1.8998081e-04  -1.8985566e-03   0.0000000e+00   1.0327723e-04   0.0000000e+00   1.2582673e-04   6.0841540e-04   0.0000000e+00   0.0000000e+00  -2.0385939e-03   0.0000000e+00   0.0000000e+00   2.8025786e-03   0.0000000e+00   0.0000000e+00   0.0000000e+00  -9.3520131e-04  -3.9552079e-05  -3.3891090e-03  -3.8322846e-04  -1.4209035e-03  -2.0170562e-03  -2.0671132e-04   0.0000000e+00  -4.2194533e-04   6.0941692e-04   0.0000000e+00  -1.1438055e-03   0.0000000e+00   0.0000000e+00   0.0000000e+00   0.0000000e+00   0.0000000e+00   0.0000000e+00   0.0000000e+00
  -3.7197057e-05  -8.2221901e-05  -1.5358925e-04  -2.9622386e-04  -6.4928975e-05   0.0000000e+00   2.4223410e-06   0.0000000e+00  -8.4890214e-05  -1.3922905e-04   0.0000000e+00   0.0000000e+00   2.9849745e-04   0.0000000e+00   0.0000000e+00  -2.6345286e-04   0.0000000e+00   0.0000000e+00   0.0000000e+00   2.2402227e-05   2.0185931e-05   6.8637295e-05  -7.2739887e-06  -1.4582807e-04  -5.6441366e-05  -1.3326414e-05   0.0000000e+00  -4.9981063e-05  -1.2502940e-04   0.0000000e+00  -5.4821886e-05   0.0000000e+00   0.0000000e+00   0.0000000e+00   0.0000000e+00   0.0000000e+00   0.0000000e+00   0.0000000e+00   1.9444461e-04  -1.9857456e-04  -6.7412854e-05   2.8769160e-04   2.4681872e-04   0.0000000e+00   3.4744738e-04   0.0000000e+00  -1.3247194e-04   7.6336695e-05   0.0000000e+00   0.0000000e+00   2.0622784e-05   0.0000000e+00   0.0000000e+00  -2.3320795e-04   0.0000000e+00   0.0000000e+00   0.0000000e+00   3.3166773e-05   4.9450464e-06   2.3938179e-04  -7.0456431e-06   2.6404987e-04   2.3070483e-04   3.2738340e-05   0.0000000e+00   1.1901961e-04  -8.5813480e-05   0.0000000e+00  -2.2618071e-04   0.0000000e+00   0.0000000e+00   0.0000000e+00   0.0000000e+00   0.0000000e+00   0.0000000e+00   0.0000000e+00   4.2086574e-05   1.7373884e-04  -4.9580519e-05  -1.7878250e-04  -4.3426421e-04   0.0000000e+00   8.6053932e-04   0.0000000e+00   6.6818179e-04   3.4135398e-05   0.0000000e+00   0.0000000e+00  -9.8901480e-04   0.0000000e+00   0.0000000e+00   7.6016471e-04   0.0000000e+00   0.0000000e+00   0.0000000e+00   2.5409460e-04   1.1744710e-03   3.7239786e-04   7.1416605e-04   3.1449647e-04   2.7202034e-04   9.5796754e-04   0.0000000e+00  -2.3051141e-04   3.2875290e-05   0.0000000e+00  -2.3197319e-04   0.0000000e+00   0.0000000e+00   0.0000000e+00   0.0000000e+00   0.0000000e+00   0.0000000e+00   0.0000000e+00  -7.5884995e-05  -8.5610244e-05   3.3760622e-05   7.1320207e-06   1.5836452e-05   0.0000000e+00  -2.2744206e-04   0.0000000e+00  -1.3331624e-05   1.7725280e-04   0.0000000e+00   0.0000000e+00  -1.0898622e-04   0.0000000e+00   0.0000000e+00   1.1759656e-04   0.0000000e+00   0.0000000e+00   0.0000000e+00  -8.9723792e-06  -4.6321874e-05  -5.6289452e-05  -7.1593706e-05   2.6418123e-05  -3.1181197e-05   2.4139628e-05   0.0000000e+00   4.5471337e-05   9.2843881e-05   0.0000000e+00  -2.2890212e-04   0.0000000e+00   0.0000000e+00   0.0000000e+00   0.0000000e+00   0.0000000e+00   0.0000000e+00   0.0000000e+00  -1.1438168e-04  -2.3360365e-04   6.1846198e-05  -1.8275733e-05  -6.8005564e-05   0.0000000e+00  -2.1262952e-05   0.0000000e+00  -7.5244867e-05   5.2526088e-05   0.0000000e+00   0.0000000e+00  -5.1797668e-04   0.0000000e+00   0.0000000e+00   1.9707621e-04   0.0000000e+00   0.0000000e+00   0.0000000e+00  -2.5675263e-04  -1.9314009e-04  -1.2714724e-04  -9.7413935e-05   1.4840006e-04   1.7273465e-05  -8.4054286e-05   0.0000000e+00  -8.0212814e-05  -1.1927748e-04   0.0000000e+00  -1.8233888e-04   0.0000000e+00   0.0000000e+00   0.0000000e+00   0.0000000e+00   0.0000000e+00   0.0000000e+00   0.0000000e+00   9.3809779e-05  -2.1483899e-04   8.8646335e-05   4.5193672e-05   8.6182036e-05   0.0000000e+00   1.9954137e-04   0.0000000e+00  -4.0691745e-05  -4.6444361e-05   0.0000000e+00   0.0000000e+00  -6.3538505e-05   0.0000000e+00   0.0000000e+00  -6.0818070e-05   0.0000000e+00   0.0000000e+00   0.0000000e+00  -1.7352117e-05   3.7324573e-05   2.0318274e-04  -8.2200339e-05  -9.1296955e-05   5.4406938e-06  -6.5244031e-05   0.0000000e+00  -9.4381088e-05  -9.7841232e-05   0.0000000e+00   7.4372047e-05   0.0000000e+00   0.0000000e+00   0.0000000e+00   0.0000000e+00   0.0000000e+00   0.0000000e+00   0.0000000e+00  -1.0879062e-04  -4.9743034e-04  -7.9506309e-05  -3.8064045e-04   2.4665088e-04   0.0000000e+00  -2.9295874e-04   0.0000000e+00  -6.9715777e-05  -5.6148535e-04   0.0000000e+00   0.0000000e+00  -7.7376188e-04   0.0000000e+00   0.0000000e+00  -4.1505417e-04   0.0000000e+00   0.0000000e+00   0.0000000e+00  -1.1569323e-04  -2.5607123e-04   2.2408149e-04  -4.1022581e-04  -1.0439913e-04   1.6156651e-04  -3.8160101e-04   0.0000000e+00  -4.3870540e-04  -1.8900310e-04   0.0000000e+00   1.2643516e-04   0.0000000e+00   0.0000000e+00   0.0000000e+00   0.0000000e+00   0.0000000e+00   0.0000000e+00   0.0000000e+00   2.7217593e-05  -2.0320104e-04  -2.5020955e-04   3.2156004e-04   9.9669692e-05   0.0000000e+00   1.0209699e-04   0.0000000e+00  -3.4648309e-04  -1.3433185e-04   0.0000000e+00   0.0000000e+00   1.5420989e-05   0.0000000e+00   0.0000000e+00  -6.9571584e-04   0.0000000e+00   0.0000000e+00   0.0000000e+00  -7.7497762e-05   7.5311186e-05   8.2754682e-05  -1.4122983e-05   3.0981020e-05   1.3573016e-04  -5.0378491e-05   0.0000000e+00  -9.2868846e-05  -3.4397217e-04   0.0000000e+00  -1.7731552e-04   0.0000000e+00   0.0000000e+00   0.0000000e+00   0.0000000e+00   0.0000000e+00   0.0000000e+00   0.0000000e+00  -1.7593162e-04  -4.6847596e-04  -1.0999902e-04   5.1170340e-05  -1.7721117e-04   0.0000000e+00   2.1621984e-04   0.0000000e+00  -2.0009695e-04  -2.6524935e-04   0.0000000e+00   0.0000000e+00  -1.7418681e-04   0.0000000e+00   0.0000000e+00  -2.3615223e-04   0.0000000e+00   0.0000000e+00   0.0000000e+00  -2.1906705e-04  -2.1507586e-04  -3.0683934e-04  -3.1329431e-04  -3.8932731e-04   8.2928539e-05  -4.0873613e-04   0.0000000e+00  -1.8324365e-04   3.2579238e-05   0.0000000e+00   1.0545970e-04   0.0000000e+00   0.0000000e+00   0.0000000e+00   0.0000000e+00   0.0000000e+00   0.0000000e+00   0.0000000e+00  -4.4982481e-04  -3.9346210e-05  -1.8611779e-04  -3.1338363e-04  -2.0590630e-04   0.0000000e+00  -9.5292754e-04   0.0000000e+00   9.4439421e-05   1.4733335e-04   0.0000000e+00   0.0000000e+00  -1.0604864e-03   0.0000000e+00   0.0000000e+00   2.9040356e-04   0.0000000e+00   0.0000000e+00   0.0000000e+00  -3.9729942e-04   1.4881179e-04  -5.1367351e-04   1.5151115e-04  -2.3679313e-04  -4.1428490e-04   1.5156419e-04   0.0000000e+00  -1.6475445e-04   9.9627801e-05   0.0000000e+00  -5.8692059e-04   0.0000000e+00   0.0000000e+00   0.0000000e+00   0.0000000e+00   0.0000000e+00   0.0000000e+00   0.0000000e+00  -1.7018106e-03  -1.9859895e-03  -1.0363944e-03  -2.1053776e-04  -1.9841324e-03   0.0000000e+00   1.4448526e-04   0.0000000e+00   9.0945413e-05   4.8929011e-04   0.0000000e+00   0.0000000e+00  -1.8743502e-03   0.0000000e+00   0.0000000e+00   2.6793893e-03   0.0000000e+00   0.0000000e+00   0.0000000e+00  -8.9025075e-04   7.6625910e-05  -3.4126703e-03  -3.4327854e-04  -1.4758637e-03  -2.0448530e-03  -2.0419305e-04   0.0000000e+00  -4.7426677e-04   5.9816547e-04   0.0000000e+00  -1.1383583e-03   0.0000000e+00   0.0000000e+00   0.0000000e+00   0.0000000e+00   0.0000000e+00   0.0000000e+00   0.0000000e+00
  -4.2564989e-05  -1.0262207e-04  -1.5529689e-04  -2.9011123e-04  -6.5370299e-05   0.0000000e+00  -9.9296517e-06   0.0000000e+00  -9.3062706e-05  -1.3975010e-04   0.0000000e+00   0.0000000e+00   2.6525617e-04   0.0000000e+00   0.0000000e+00  -2.6871600e-04   0.0000000e+00   0.0000000e+00   0.0000000e+00   1.3061320e-05   1.3523687e-05   6.9728107e-05  -1.9268737e-05  -1.4552955e-04  -5.8407062e-05  -1.9734397e-05   0.0000000e+00  -5.1351384e-05  -1.2717611e-04   0.0000000e+00  -6.0185135e-05   0.0000000e+00   0.0000000e+00   0.0000000e+00   0.0000000e+00   0.0000000e+00   0.0000000e+00   0.0000000e+00   2.2207540e-04  -1.6228956e-04  -5.4603901e-05   3.2103101e-04   2.6568565e-04   0.0000000e+00   3.6546073e-04   0.0000000e+00  -1.2575880e-04   1.1411780e-04   0.0000000e+00   0.0000000e+00   2.6069925e-05   0.0000000e+00   0.0000000e+00  -2.0945626e-04   0.0000000e+00   0.0000000e+00   0.0000000e+00   5.1604192e-05   2.2694419e-05   2.4512840e-04   6.2469788e-06   2.9282816e-04   2.5681788e-04   4.8605829e-05   0.0000000e+00   1.3453866e-04  -8.1307981e-05   0.0000000e+00  -2.2834196e-04   0.0000000e+00   0.0000000e+00   0.0000000e+00   0.0000000e+00   0.0000000e+00   0.0000000e+00   0.0000000e+00   4.0781354e-06   9.2045782e-05  -2.2257846e-04  -2.3781619e-04  -4.8858194e-04   0.0000000e+00   9.4995839e-04   0.0000000e+00   6.7653709e-04  -8.6217702e-05   0.0000000e+00   0.0000000e+00  -1.0587603e-03   0.0000000e+00   0.0000000e+00   6.6796785e-04   0.0000000e+00   0.0000000e+00   0.0000000e+00   2.4768728e-04   1.3478100e-03   3.9567755e-04   7.0540033e-04   2.5089575e-04   2.0539067e-04   9.7639574e-04   0.0000000e+00  -3.8351013e-04   4.4365054e-05   0.0000000e+00  -4.1864155e-04   0.0000000e+00   0.0000000e+00   0.0000000e+00   0.0000000e+00   0.0000000e+00   0.0000000e+00   0.0000000e+00  -6.7750456e-05  -8.7283948e-05   3.8850294e-05   2.5234237e-05   2.7149706e-05   0.0000000e+00  -2.2040572e-04   0.0000000e+00  -1.9874796e-05   1.8317504e-04   0.0000000e+00   0.0000000e+00  -6.6110046e-05   0.0000000e+00   0.0000000e+00   9.8179038e-05   0.0000000e+00   0.0000000e+00   0.0000000e+00  -1.3854991e-06  -3.7741507e-05  -3.8691544e-05  -6.7463917e-05   2.7805684e-05  -1.8862859e-05   2.4656315e-05   0.0000000e+00   4.4345132e-05   9.0081814e-05   0.0000000e+00  -2.3492719e-04   0.0000000e+00   0.0000000e+00   0.0000000e+00   0.0000000e+00   0.0000000e+00   0.0000000e+00   0.0000000e+00  -1.4508841e-04  -2.4956647e-04   6.9026584e-05  -2.8031596e-05  -8.8815895e-05   0.0000000e+00  -6.9150632e-05   0.0000000e+00  -6.1990744e-05   7.7013919e-05   0.0000000e+00   0.0000000e+00  -5.9489706e-04   0.0000000e+00   0.0000000e+00   2.7665666e-04   0.0000000e+00   0.0000000e+00   0.0000000e+00  -2.7324795e-04  -2.4039803e-04  -1.7223728e-04  -1.2471661e-04   1.5648884e-04  -8.0617156e-06  -1.1363572e-04   0.0000000e+00  -7.6045115e-05  -1.1766722e-04   0.0000000e+00  -1.8694448e-04   0.0000000e+00   0.0000000e+00   0.0000000e+00   0.0000000e+00   0.0000000e+00   0.0000000e+00   0.0000000e+00   9.9544165e-05  -1.8893354e-04   9.7560704e-05   5.5443317e-05   8.4325689e-05   0.0000000e+00   2.2240721e-04   0.0000000e+00  -3.9985830e-05  -4.6792430e-05   0.0000000e+00   0.0000000e+00  -3.8597637e-05   0.0000000e+00   0.0000000e+00  -5.1398305e-05   0.0000000e+00   0.0000000e+00   0.0000000e+00  -1.1909274e-05   5.1836329e-05   1.8958331e-04  -6.6104928e-05  -8.9773428e-05   1.5377931e-05  -5.2280578e-05   0.0000000e+00  -8.4805075e-05  -8.9848643e-05   0.0000000e+00   7.3261186e-05   0.0000000e+00   0.0000000e+00   0.0000000e+00   0.0000000e+00   0.0000000e+00   0.0000000e+00   0.0000000e+00  -1.2394399e-04  -4.9731099e-04  -1.0378815e-04  -3.9955791e-04   2.4451951e-04   0.0000000e+00  -3.0998514e-04   0.0000000e+00  -9.0439866e-05  -5.9127460e-04   0.0000000e+00   0.0000000e+00  -7.4713408e-04   0.0000000e+00   0.0000000e+00  -4.6256463e-04   0.0000000e+00   0.0000000e+00   0.0000000e+00  -1.1070402e-04  -2.7018039e-04   2.1250275e-04  -4.1732286e-04  -1.1422904e-04   1.4551555e-04  -3.8827757e-04   0.0000000e+00  -4.3849244e-04  -1.8264665e-04   0.0000000e+00   8.9968207e-05   0.0000000e+00   0.0000000e+00   0.0000000e+00   0.0000000e+00   0.0000000e+00   0.0000000e+00   0.0000000e+00   6.0336457e-05  -1.7398089e-04  -2.0670986e-04   3.6993619e-04   1.2754320e-04   0.0000000e+00   1.1497597e-04   0.0000000e+00  -3.2700396e-04  -1.3275582e-04   0.0000000e+00   0.0000000e+00   4.1809740e-05   0.0000000e+00   0.0000000e+00  -6.3838620e-04   0.0000000e+00   0.0000000e+00   0.0000000e+00  -5.1657391e-05   6.8260510e-05   9.8843862e-05  -1.6950953e-05   6.1396595e-05   1.4897156e-04  -4.3141568e-05   0.0000000e+00  -6.9771867e-05  -3.3303939e-04   0.0000000e+00  -1.5323702e-04   0.0000000e+00   0.0000000e+00   0.0000000e+00   0.0000000e+00   0.0000000e+00   0.0000000e+00   0.0000000e+00  -2.1485268e-04  -4.9746114e-04  -1.1991354e-04   2.4707770e-05  -2.2054559e-04   0.0000000e+00   1.7392149e-04   0.0000000e+00  -1.9333287e-04  -2.9745820e-04   0.0000000e+00   0.0000000e+00  -2.2922123e-04   0.0000000e+00   0.0000000e+00  -2.5192290e-04   0.0000000e+00   0.0000000e+00   0.0000000e+00  -2.5465222e-04  -2.4348875e-04  -3.4676697e-04  -3.3320742e-04  -4.2752173e-04   3.5916525e-05  -4.5063502e-04   0.0000000e+00  -2.1245532e-04   2.9009253e-05   0.0000000e+00   1.0017769e-04   0.0000000e+00   0.0000000e+00   0.0000000e+00   0.0000000e+00   0.0000000e+00   0.0000000e+00   0.0000000e+00  -4.7052626e-04  -4.8276767e-05  -1.9075319e-04  -3.2337661e-04  -2.1765334e-04   0.0000000e+00  -1.0059583e-03   0.0000000e+00   9.5835377e-05   1.6178407e-04   0.0000000e+00   0.0000000e+00  -1.0514374e-03   0.0000000e+00   0.0000000e+00   3.3007020e-04   0.0000000e+00   0.0000000e+00   0.0000000e+00  -4.1906224e-04   1.3909237e-04  -5.3939445e-04   1.4576329e-04  -2.3121164e-04  -4.1615703e-04   1.4074255e-04   0.0000000e+00  -1.6597694e-04   9.8862544e-05   0.0000000e+00  -6.5704316e-04   0.0000000e+00   0.0000000e+00   0.0000000e+00   0.0000000e+00   0.0000000e+00   0.0000000e+00   0.0000000e+00  -1.7239355e-03  -2.0033732e-03  -1.0876375e-03  -2.2905868e-04  -2.0752624e-03   0.0000000e+00   1.6840359e-04   0.0000000e+00   4.8943242e-05   3.8254808e-04   0.0000000e+00   0.0000000e+00  -1.6924249e-03   0.0000000e+00   0.0000000e+00   2.5491140e-03   0.0000000e+00   0.0000000e+00   0.0000000e+00  -8.6486673e-04   1.7066894e-04  -3.4474938e-03  -3.0342171e-04  -1.5236081e-03  -2.0705963e-03  -2.0522296e-04   0.0000000e+00  -5.1621840e-04   5.8146616e-04   0.0000000e+00  -1.1356387e-03   0.0000000e+00   0.0000000e+00   0.0000000e+00   0.0000000e+00   0.0000000e+00   0.0000000e+00   0.0000000e+00
