   7.3772308e-06   5.5105594e-06   3.2719193e-06   3.5626823e-05   4.2578515e-06  -6.8442264e-06  -6.6139400e-06  -3.7028503e-05  -1.5856427e-05   2.4339946e-06   1.8973872e-05   2.0798582e-06  -2.7149336e-05  -5.5228262e-05  -7.9503208e-06  -1.8334605e-05   2.5087224e-05  -3.2939833e-05  -1.3948826e-05  -1.8555352e-05  -8.8375453e-06  -2.5142433e-05   4.7543237e-06   1.3616804e-05  -2.2109738e-05  -4.9802215e-06   6.8913405e-06   1.5153081e-05   5.7246889e-05  -6.1034482e-05   1.2960751e-04  -1.8684395e-05  -1.4300424e-05  -2.4010795e-05   9.6332489e-06   6.7813173e-05  -5.3679578e-05  -3.0820862e-05  -1.0049061e-04  -7.7923209e-05  -9.1728901e-05  -1.6667366e-04  -1.1073602e-04  -1.5683936e-05   2.3238491e-05  -3.0402379e-05  -1.0145439e-04  -7.3864115e-05  -4.4821230e-05  -5.8008958e-05  -5.6858585e-05  -5.5078267e-05  -1.2681644e-05  -1.2135544e-04  -4.7300410e-05  -1.8804637e-05  -3.9576139e-05  -3.0688297e-05  -3.2092507e-05  -1.0927927e-04  -3.6111449e-05  -1.1315198e-04  -4.6328353e-05  -2.1151361e-05  -2.8883695e-05  -1.0709848e-04  -5.0521490e-05  -3.3590471e-05   7.5060834e-06   1.1909753e-05   4.5352657e-05   1.8790700e-06  -2.0300145e-05   1.2878546e-04   1.4974694e-04   4.3634457e-06  -7.7568035e-05   6.1323650e-06  -4.8905087e-05  -1.1885545e-05  -5.8357292e-05  -1.1385906e-04  -8.3290225e-05  -6.0201140e-05  -5.1660028e-05  -9.4478809e-05  -1.7219247e-04  -1.6927788e-04   1.0804320e-04   1.6605959e-05  -4.3447608e-05  -6.7639564e-05  -1.9827033e-04  -1.9049163e-04  -1.3753253e-04  -1.6749363e-04  -1.7332535e-04   3.8758529e-06  -8.6455948e-05   7.4568876e-05   8.7427737e-06  -1.4776443e-04  -8.4345666e-05  -6.5312110e-05   3.3988224e-05   4.6693856e-05   7.6536138e-05  -1.1891280e-04  -1.8762734e-04  -1.0395716e-04  -2.7102784e-05   3.2707952e-06  -9.0617873e-05  -1.7178230e-04   9.9143501e-06  -6.3303576e-06  -5.8209064e-05  -1.7839733e-05  -2.9762693e-05  -8.9164457e-06  -2.9624169e-05  -5.1603130e-05  -3.2794573e-05  -3.7861209e-05  -2.8834323e-05  -1.7897163e-05  -7.4756652e-05  -7.8212663e-05  -2.1363720e-06  -4.2958435e-05   1.7611578e-05  -2.8545727e-05  -1.6203845e-05  -1.3246982e-05   5.1500017e-07  -1.4049785e-05  -1.4816708e-05  -2.4336867e-05  -5.1781907e-05  -2.7391481e-05  -1.6673217e-06  -3.1168421e-05  -1.7580560e-05  -6.8736753e-05  -5.2644143e-05   2.9463566e-06  -8.3419129e-06  -1.2102077e-05  -1.1108378e-05  -1.5863435e-06  -7.7359696e-05  -8.1156276e-05  -9.3183868e-06  -1.3724512e-05  -4.3771423e-05  -5.1673248e-05  -2.7510025e-05  -1.3109372e-05  -6.3903424e-05  -6.2752270e-05  -1.8902740e-05  -3.0812031e-05  -3.4064598e-05  -2.2495107e-05  -1.6911879e-05  -3.7318938e-05  -4.7058566e-05  -3.7302805e-05  -3.2974292e-05  -3.8102725e-05  -2.0115952e-05  -2.3665049e-05  -3.1499177e-05  -5.2914333e-05  -2.0772873e-05  -3.4357678e-05  -2.0447270e-05  -4.5751000e-05  -4.1318466e-06  -1.2224279e-06   2.1395810e-07  -7.1718302e-05  -6.4648628e-05  -3.0793528e-05  -4.8815632e-05  -1.1418051e-05  -1.8216713e-05  -5.3884146e-05  -1.2105286e-05   6.9912840e-07  -1.9861756e-05  -3.7843433e-05   1.8618674e-05   2.8541012e-06  -1.3101123e-05  -3.3276221e-05  -2.3793598e-05  -4.2742141e-05  -6.9084023e-06  -2.7960057e-05  -6.5460059e-05  -4.0996191e-05   3.5444672e-06  -1.8430291e-05  -2.2919772e-05  -1.5165681e-05  -5.7502080e-05  -7.1395752e-05  -6.5364251e-05  -5.8500055e-05  -5.2996085e-05  -1.2283128e-05  -1.0837866e-05  -3.9185953e-05  -2.8666427e-05  -6.2044126e-05  -3.4572362e-05  -3.5076465e-05  -4.0203520e-05  -3.5104748e-05  -5.8213651e-05  -5.0957482e-05  -8.9404273e-05  -4.7753378e-05  -3.9928468e-05  -5.4872429e-05  -5.1351316e-05  -3.6883204e-05  -1.9463549e-05  -3.6993697e-05  -1.7428001e-04  -1.2575471e-04  -1.5259551e-04  -6.2468228e-05  -5.2717979e-05   2.5270221e-05  -8.8652901e-05  -1.0522049e-04  -9.7209158e-05  -1.0466217e-04  -5.2001037e-05   6.0402034e-05   1.3052241e-04  -9.0000478e-05  -5.9534359e-05  -5.9976684e-05  -7.5378638e-05  -9.1138574e-05  -1.3014387e-04  -8.1958500e-05  -4.3688551e-05  -6.1964310e-05  -7.5294309e-05  -7.3907273e-05  -4.3468592e-05  -7.8064055e-05  -6.4507214e-06  -7.0771473e-06  -1.0098806e-04  -3.5758479e-05  -6.3640230e-06  -8.7686136e-06   1.1505478e-05  -1.5590056e-05  -9.2058785e-05  -7.7243716e-05   2.1117593e-05  -3.8370779e-06  -9.5002783e-05   7.7701376e-06  -8.5842279e-05  -6.3978928e-05   3.6928882e-04   4.2287212e-04  -8.9701975e-05  -7.5019682e-05  -8.5610066e-05  -6.9502702e-05   2.5797123e-05   4.0964320e-04   2.6329187e-04  -5.1499349e-05  -7.8281350e-05  -1.2914240e-04  -9.2391084e-05  -8.9201805e-05  -9.2534973e-05  -6.1350701e-05  -4.4185628e-05   1.1996291e-05  -1.5208913e-04  -1.5305702e-04  -4.5702208e-05  -1.5718893e-04   1.6440056e-04   3.7708566e-04   1.0085024e-03  -6.8299419e-05  -1.1202590e-04  -6.3191439e-05   8.8739160e-05   4.0188859e-04   2.3198916e-04   2.2093036e-05   6.1470549e-05  -2.2542852e-05  -5.6661081e-05   1.3152887e-04  -4.0877092e-05  -5.3666495e-05   1.2446461e-04   9.0710058e-05   4.7876751e-05  -5.4198727e-05  -6.0613746e-05  -3.1004839e-06   2.8479986e-04  -1.1065010e-05   7.4657333e-05  -3.3317284e-05   7.7817520e-05  -2.9667804e-05  -9.4981168e-06   6.1695003e-05   6.8646958e-05  -3.9070246e-05  -1.2492440e-05  -5.3785333e-05  -2.7836780e-05   7.1891963e-05   5.9878027e-05   8.1582307e-05   9.6772865e-05   1.2615726e-04   2.0891371e-04   2.7423014e-05  -9.2441468e-06  -2.6546323e-06   3.9506537e-05   7.9995426e-05  -4.9743402e-05  -9.9514947e-05  -4.4622228e-05  -3.0200835e-05  -1.1138635e-04  -9.5863012e-05  -1.6228143e-05  -2.7140820e-06  -1.1792741e-04  -1.3768988e-04  -5.6910296e-05  -2.6722863e-05  -1.4638828e-05  -2.0703389e-05   9.4182662e-07  -8.0361785e-05  -7.3472095e-05  -6.8550814e-05  -2.4889045e-05   1.0291048e-05   3.1888145e-05   2.5795269e-05   1.6873715e-05  -4.4367000e-05  -5.4169648e-06  -5.3436988e-05  -2.7935328e-05  -1.0075462e-05   9.0031934e-06  -1.1171276e-05  -5.0337249e-05  -1.4308924e-04   3.1317842e-05   1.7407191e-05   3.8955724e-05   1.1898003e-05  -8.5482359e-06   1.3820776e-05   3.4855889e-05   1.8480924e-05  -5.9146483e-05  -1.1550825e-04  -9.6999147e-05  -1.2015749e-04  -4.7421866e-05  -3.4050174e-05  -1.0947578e-04  -1.2073456e-04  -7.1895784e-05  -8.6834182e-06  -2.5821343e-05   1.6339617e-05  -5.1858652e-05  -8.6279608e-05  -3.0997488e-05  -5.5172980e-06  -1.4585485e-05  -7.6244517e-07  -4.4547901e-05  -3.9769372e-05  -6.7794162e-05  -5.1413466e-05   3.6607606e-05  -1.0091517e-04  -1.1588762e-05   1.3678034e-05  -1.6668921e-05  -4.7155258e-05  -2.0370438e-05  -1.4518873e-04  -1.8248644e-04  -9.8420484e-05  -9.7674167e-05  -5.5465158e-05  -6.6702463e-05  -1.4933501e-04  -2.3610627e-04  -1.3344583e-04  -1.2775406e-04  -7.0915629e-05  -7.8731981e-05  -1.8966871e-04  -1.7739339e-04  -1.5637899e-05  -4.7269921e-05   9.8157522e-06  -6.7400864e-05  -1.0065419e-04  -5.4953675e-05  -4.3864336e-05  -9.2071670e-05  -1.3038819e-04  -2.0220292e-04  -4.7309560e-05   9.2625109e-05   1.4062477e-05   3.8847660e-06   3.4497586e-05   1.4577610e-04  -1.5481205e-05   2.4977191e-05  -4.4740476e-06  -1.1033614e-04   1.2746726e-04   6.1574145e-05  -1.0970977e-04  -8.4241476e-05   3.0970452e-05   4.6229829e-05   2.0017985e-04   3.4504426e-04   6.9330390e-05  -2.1496422e-05   5.0778094e-06   3.9986312e-05  -1.1637810e-04
   4.5550101e-06   2.2298401e-06  -5.1071505e-06   3.2553782e-05  -4.4504894e-06  -1.2487248e-05  -6.5483680e-06  -3.7955870e-05  -2.2479200e-05  -3.9558988e-06   1.2725869e-05  -4.3974285e-06  -3.0475321e-05  -6.0984035e-05  -6.7551582e-06  -2.5204010e-05   2.4167322e-05  -4.3326130e-05  -2.2397741e-05  -2.7765745e-05  -1.6823493e-05  -3.2509616e-05   2.4718869e-06   1.1569880e-05  -2.9977853e-05  -9.2975540e-06   3.8065435e-06   1.0380339e-05   6.3758359e-05  -6.5008200e-05   1.4811151e-04  -2.4457366e-05  -2.0220115e-05  -2.8636066e-05   9.8000050e-06   7.4767599e-05  -6.8620756e-05  -3.6990687e-05  -1.2542812e-04  -9.4527447e-05  -1.1330434e-04  -2.0680604e-04  -1.3348162e-04  -2.2222330e-05   2.5785840e-05  -2.7196301e-05  -1.2231667e-04  -8.9429772e-05  -5.7045395e-05  -7.4097684e-05  -6.3689195e-05  -6.0192161e-05  -1.3445297e-05  -1.4393034e-04  -6.6390708e-05  -1.9037609e-05  -5.0481334e-05  -3.8715941e-05  -4.5204063e-05  -1.2553198e-04  -4.4135650e-05  -1.2900396e-04  -4.7507707e-05  -2.7615236e-05  -3.4907642e-05  -1.2670425e-04  -5.5873843e-05  -2.5651508e-05   9.2244172e-06   1.1665696e-05   4.9646945e-05   6.0509620e-06  -2.0389646e-05   1.4401820e-04   1.7567714e-04   9.7912719e-06  -8.5718486e-05   7.7484462e-07  -6.1578626e-05  -1.9872371e-05  -7.7056304e-05  -1.3252896e-04  -9.1878649e-05  -5.5775350e-05  -6.7916281e-05  -1.1361351e-04  -2.0134340e-04  -1.9260526e-04   1.2689163e-04   2.2897211e-05  -4.5042411e-05  -8.1189645e-05  -2.2060321e-04  -2.2352537e-04  -1.5998027e-04  -1.9276571e-04  -2.0392236e-04  -3.8263194e-06  -9.9098092e-05   7.2140089e-05   1.9040720e-06  -1.6656987e-04  -9.1497117e-05  -8.3132749e-05   3.6037512e-05   6.0158976e-05   7.8236092e-05  -1.3248723e-04  -2.0257062e-04  -1.1639514e-04  -2.8560159e-05   3.3163863e-05  -1.0418513e-04  -1.8544238e-04   8.8566737e-06  -1.0020893e-05  -6.6182052e-05  -2.4130734e-05  -3.4204919e-05  -1.0536653e-05  -3.4135932e-05  -6.0270255e-05  -3.8013574e-05  -4.3739903e-05  -3.5211566e-05  -2.1951022e-05  -8.7457328e-05  -8.9863311e-05  -4.0262323e-06  -4.6501414e-05   1.6664492e-05  -3.1628981e-05  -1.8506872e-05  -1.6130756e-05  -1.7407381e-06  -1.7146463e-05  -1.8151372e-05  -3.1533763e-05  -5.9148935e-05  -3.2642323e-05  -4.9941014e-06  -4.0175959e-05  -2.3303460e-05  -8.4012235e-05  -6.6586775e-05   2.8290696e-06  -8.6431843e-06  -1.4427293e-05  -1.5443320e-05  -4.5769653e-06  -9.2079452e-05  -9.6706560e-05  -1.2150418e-05  -1.6121499e-05  -5.1026052e-05  -6.1264219e-05  -3.3729153e-05  -1.3791191e-05  -5.3909131e-05  -6.4368410e-05  -2.3922901e-05  -3.4574423e-05  -3.8239990e-05  -2.5503091e-05  -1.8829892e-05  -3.4284669e-05  -3.5460862e-05  -4.3907210e-05  -3.6591096e-05  -4.1741092e-05  -2.1353184e-05  -2.5354114e-05  -3.5228666e-05  -5.7813090e-05  -2.6336014e-05  -4.0730180e-05  -2.7188751e-05  -5.2388858e-05  -7.1210303e-06  -6.9085146e-06   4.4234247e-07  -7.1588960e-05  -6.0111593e-05  -3.4621123e-05  -5.4511235e-05  -1.6353974e-05  -2.5574289e-05  -4.9421423e-05  -1.1484852e-05  -5.0480126e-06  -2.0741855e-05  -4.2579003e-05   2.1141969e-05   3.0504852e-06  -1.3987042e-05  -3.6095567e-05  -2.2650952e-05  -4.3097932e-05  -5.8432262e-06  -3.0976221e-05  -7.3310659e-05  -4.5319346e-05   3.1080669e-06  -1.5391010e-05  -2.1737940e-05  -1.5796499e-05  -6.4527108e-05  -7.8534556e-05  -7.1768837e-05  -6.4348395e-05  -5.8452093e-05  -1.2903891e-05  -1.3991153e-05  -4.5675058e-05  -3.2546981e-05  -7.0107738e-05  -4.0645781e-05  -4.0683471e-05  -4.6087688e-05  -3.7508609e-05  -6.8146476e-05  -5.6660875e-05  -1.0101439e-04  -5.3672772e-05  -4.5563684e-05  -6.1749772e-05  -5.7272026e-05  -3.8973719e-05  -1.4021132e-05  -4.1066597e-05  -1.8842827e-04  -1.3700626e-04  -1.6184737e-04  -6.4195451e-05  -4.9782342e-05   3.8492769e-05  -9.3502111e-05  -1.1149739e-04  -1.0331961e-04  -1.1011722e-04  -6.0533009e-05   7.7691586e-05   1.5428193e-04  -9.3113955e-05  -6.4740918e-05  -5.8100924e-05  -7.6064516e-05  -9.1183510e-05  -1.3369173e-04  -8.4426530e-05  -4.7639926e-05  -7.1811940e-05  -8.1346486e-05  -7.8361188e-05  -4.8569639e-05  -8.7832052e-05  -1.8370398e-05   4.9166078e-06  -1.2212319e-04  -3.3763948e-05  -4.4024168e-06  -1.0110712e-05   9.8144102e-06  -1.7814051e-05  -8.7099910e-05  -8.5826601e-05   2.5452759e-05  -2.1408295e-06  -1.0465893e-04   6.9070686e-06  -9.1243625e-05  -6.5978219e-05   4.0517854e-04   4.7781408e-04  -9.3161182e-05  -7.6487888e-05  -8.8294254e-05  -6.8878291e-05   3.5224769e-05   4.6484127e-04   2.9154311e-04  -4.8499423e-05  -8.0868163e-05  -1.3290392e-04  -9.5618667e-05  -8.7933707e-05  -9.3563354e-05  -5.8414179e-05  -4.5439185e-05   1.8401187e-05  -1.6297060e-04  -1.6318725e-04  -5.2127454e-05  -1.7252750e-04   1.7124283e-04   4.4507776e-04   1.0826847e-03  -6.9447479e-05  -1.1976398e-04  -6.5147139e-05   9.9558042e-05   4.3796687e-04   2.7887685e-04   2.5252920e-05   7.4115346e-05  -1.7064804e-05  -3.1668671e-05   1.7142938e-04  -2.7103966e-05  -5.2979620e-05   1.4935210e-04   1.1226352e-04   6.1213654e-05  -4.9071877e-05  -6.4050648e-05   3.3201728e-06   3.3179787e-04  -9.4430156e-06   8.5193070e-05  -2.2363226e-05   8.0490078e-05  -2.5784686e-05  -6.9128842e-06   7.8739756e-05   8.4633993e-05  -2.4649509e-05  -1.1737814e-05  -3.2244734e-05  -1.4894602e-05   8.2616324e-05   6.4409673e-05   1.0103667e-04   1.1649138e-04   1.4917260e-04   2.5677723e-04   4.1820545e-05  -8.9300552e-06  -4.6127077e-06   4.2375549e-05   9.8408838e-05  -4.5210173e-05  -1.1696061e-04  -5.0523495e-05  -3.7512240e-05  -1.2332010e-04  -1.0423039e-04  -1.7234677e-05  -5.3965363e-06  -1.0424820e-04  -1.4709039e-04  -7.3416619e-05  -2.9557445e-05  -1.8601459e-05  -2.5725882e-05  -1.8758510e-05  -7.9769892e-05  -6.1597163e-05  -7.5112733e-05  -3.1671086e-05   8.6853864e-06   3.0445594e-05   2.3542890e-05   9.1913636e-06  -4.6977308e-05  -7.4123197e-06  -6.0332458e-05  -3.5076324e-05  -1.4702804e-05   3.3806673e-06  -2.1104134e-05  -4.7448463e-05  -1.5767421e-04   6.7011986e-05   1.2488836e-05   3.3641703e-05   5.5766063e-06  -1.5630023e-05   3.5455633e-05   5.0938412e-05   1.2941706e-05  -8.1650889e-05  -1.4114491e-04  -1.2091753e-04  -1.5748649e-04  -6.4217533e-05  -4.3801740e-05  -1.2440481e-04  -1.4175800e-04  -8.7377365e-05  -2.7693982e-05  -5.1292753e-05   3.3042149e-06  -6.8696280e-05  -9.9821387e-05  -4.1059075e-05  -2.1848927e-05  -3.8137047e-05  -1.8950186e-05  -6.5842635e-05  -5.7527954e-05  -8.3910670e-05  -7.1111244e-05   2.8811235e-05  -1.2826823e-04  -2.3665731e-05  -8.5609887e-06  -4.0297753e-05  -7.4250015e-05  -3.4636444e-05  -1.6881749e-04  -2.1267563e-04  -1.2434833e-04  -1.3252967e-04  -7.5196857e-05  -8.7169135e-05  -1.7398179e-04  -2.5900225e-04  -1.5438939e-04  -1.4136413e-04  -7.5212246e-05  -8.4563995e-05  -1.9967527e-04  -1.8506279e-04  -1.3676643e-05  -4.8016995e-05   8.0931783e-06  -7.1360944e-05  -1.1124129e-04  -6.2263383e-05  -4.4122924e-05  -1.1309470e-04  -1.6201349e-04  -2.4531871e-04  -4.9585637e-05   9.4973130e-05   1.7594148e-05   6.1385156e-06   4.4511988e-05   1.6538220e-04  -9.3339008e-06   2.7913374e-05  -2.1814679e-06  -1.0791193e-04   1.4187653e-04   6.8261223e-05  -1.1607202e-04  -8.8456506e-05   4.2484513e-05   7.7732754e-05   2.2617141e-04   3.7939228e-04   7.6173597e-05  -2.0467180e-05   1.3889896e-05   6.0315330e-05  -1.0486256e-04
   9.6815356e-07  -1.7975901e-06  -1.4900621e-05   2.7739601e-05  -1.4732242e-05  -1.8854207e-05  -6.6817965e-06  -3.7963645e-05  -2.9465837e-05  -1.1570778e-05   4.6438514e-06  -1.2112924e-05  -3.2752257e-05  -6.5525636e-05  -5.2816449e-06  -3.2727476e-05   2.1997251e-05  -5.4358650e-05  -3.1752336e-05  -3.7817012e-05  -2.5740643e-05  -4.0212603e-05  -4.9771147e-07   8.5700414e-06  -3.8254210e-05  -1.4324329e-05   4.8395968e-08   4.4251158e-06   6.9033027e-05  -6.7291361e-05   1.6423842e-04  -3.0505268e-05  -2.6682740e-05  -3.3071911e-05   9.7530646e-06   8.0290268e-05  -8.3534459e-05  -4.2669587e-05  -1.5015633e-04  -1.1002305e-04  -1.3501018e-04  -2.4617742e-04  -1.5481926e-04  -2.8945868e-05   2.7784349e-05  -2.1469486e-05  -1.4284564e-04  -1.0486924e-04  -6.8933075e-05  -9.0276930e-05  -6.9080609e-05  -6.3624203e-05  -1.2608762e-05  -1.6629993e-04  -8.7111317e-05  -1.7766017e-05  -6.1237649e-05  -4.6402253e-05  -5.8573621e-05  -1.3950135e-04  -5.1444366e-05  -1.4192893e-04  -4.6832153e-05  -3.3244478e-05  -3.9319575e-05  -1.4462074e-04  -5.8584639e-05  -1.3864815e-05   1.3234255e-05   1.1900799e-05   5.4187143e-05   1.1869669e-05  -1.8313687e-05   1.5928975e-04   2.0134738e-04   1.6013379e-05  -9.3667764e-05  -5.8250019e-06  -7.4572104e-05  -2.9570180e-05  -9.6907946e-05  -1.5008010e-04  -9.8339874e-05  -4.7112391e-05  -8.4672899e-05  -1.3246527e-04  -2.2852428e-04  -2.1396229e-04   1.4560539e-04   3.0281118e-05  -4.4510917e-05  -9.4275993e-05  -2.4005579e-04  -2.5423056e-04  -1.8041324e-04  -2.1625406e-04  -2.3282926e-04  -1.1532850e-05  -1.0960902e-04   6.7842173e-05  -5.9441979e-06  -1.8155316e-04  -9.6709045e-05  -1.0077472e-04   3.7923470e-05   7.4931003e-05   7.8215138e-05  -1.4360386e-04  -2.1244989e-04  -1.2681881e-04  -2.9111705e-05   6.9268387e-05  -1.1490201e-04  -1.9715853e-04   7.3582587e-06  -1.3826176e-05  -7.3265384e-05  -3.0793143e-05  -3.8328761e-05  -1.1999637e-05  -3.8631630e-05  -6.8812838e-05  -4.2734473e-05  -4.9162726e-05  -4.1668047e-05  -2.5948135e-05  -1.0001370e-04  -1.0085128e-04  -6.5076485e-06  -4.8661251e-05   1.4929277e-05  -3.3994812e-05  -2.0550649e-05  -1.8893759e-05  -4.3640062e-06  -1.9994657e-05  -2.1311528e-05  -3.8702484e-05  -6.5905203e-05  -3.7610968e-05  -8.6817467e-06  -4.9494049e-05  -2.9381020e-05  -9.9448248e-05  -8.1395285e-05   2.7473120e-06  -8.6577027e-06  -1.6659918e-05  -1.9956097e-05  -8.0994677e-06  -1.0642757e-04  -1.1149727e-04  -1.5495837e-05  -1.8762594e-05  -5.8105299e-05  -7.1318163e-05  -4.0128573e-05  -1.4149238e-05  -4.0049086e-05  -6.3841027e-05  -2.9253881e-05  -3.7916395e-05  -4.2164566e-05  -2.8297959e-05  -2.1345576e-05  -2.9754949e-05  -2.0668558e-05  -4.9909328e-05  -3.9648040e-05  -4.4501506e-05  -2.1894120e-05  -2.6411872e-05  -3.8575016e-05  -6.1763614e-05  -3.2271374e-05  -4.7307773e-05  -3.3622543e-05  -5.8306415e-05  -1.0932970e-05  -1.3230120e-05   3.9481703e-07  -6.7492760e-05  -5.4038770e-05  -3.8292475e-05  -5.9432575e-05  -2.1770335e-05  -3.3539965e-05  -4.3318052e-05  -1.2102951e-05  -1.2216081e-05  -2.0523420e-05  -4.6306745e-05   2.3619332e-05   3.7162907e-06  -1.4349244e-05  -3.7930700e-05  -2.0395475e-05  -4.1760950e-05  -4.1101710e-06  -3.3177967e-05  -7.9763906e-05  -4.8613612e-05   2.0639839e-06  -1.1229148e-05  -1.9721449e-05  -1.5519233e-05  -7.0124688e-05  -8.3939740e-05  -7.6578255e-05  -6.8816071e-05  -6.2574202e-05  -1.2978268e-05  -1.6942540e-05  -5.1361690e-05  -3.6068091e-05  -7.6779882e-05  -4.6350555e-05  -4.5712438e-05  -5.1194400e-05  -3.9039659e-05  -7.7055225e-05  -6.1163113e-05  -1.1087152e-04  -5.8697717e-05  -5.0441078e-05  -6.7576432e-05  -6.2048970e-05  -4.0002313e-05  -7.5158056e-06  -4.5481806e-05  -1.9881048e-04  -1.4633146e-04  -1.6802884e-04  -6.4555960e-05  -4.5231329e-05   5.3137472e-05  -9.6156658e-05  -1.1520152e-04  -1.0745773e-04  -1.1341695e-04  -6.7892705e-05   9.5614916e-05   1.7708288e-04  -9.3489991e-05  -6.8826442e-05  -5.4164615e-05  -7.4825777e-05  -8.8605208e-05  -1.3374959e-04  -8.5107467e-05  -5.1104239e-05  -8.2177762e-05  -8.6122650e-05  -8.1236991e-05  -5.3696713e-05  -9.6715948e-05  -3.2606788e-05   1.9298427e-05  -1.4355549e-04  -3.0614944e-05  -2.1174475e-06  -1.1514953e-05   6.9230560e-06  -2.1644631e-05  -8.0151357e-05  -9.4537612e-05   3.0662586e-05   1.7018109e-07  -1.1215159e-04   6.5252584e-06  -9.3666012e-05  -6.5611343e-05   4.3708337e-04   5.2924734e-04  -9.4034977e-05  -7.5235141e-05  -8.7866193e-05  -6.4779423e-05   4.6035370e-05   5.1667373e-04   3.1735362e-04  -4.2355707e-05  -7.9639817e-05  -1.3300201e-04  -9.5994833e-05  -8.3064056e-05  -9.0596275e-05  -5.3351721e-05  -4.5083090e-05   2.4312019e-05  -1.7103519e-04  -1.6914805e-04  -5.7386065e-05  -1.8475606e-04   1.7562815e-04   5.1354877e-04   1.1429993e-03  -6.7634832e-05  -1.2394850e-04  -6.5238439e-05   1.1010283e-04   4.7235730e-04   3.2946301e-04   3.0092032e-05   8.6659450e-05  -9.6163603e-06   6.8612280e-09   2.1314712e-04  -9.4540244e-06  -5.0463046e-05   1.7394843e-04   1.3313371e-04   7.4643966e-05  -4.1118335e-05  -6.6116191e-05   1.0288719e-05   3.7336937e-04  -6.8582474e-06   9.4909253e-05  -8.5577299e-06   8.0303506e-05  -2.0876683e-05  -4.2231494e-06   9.5339251e-05   9.9912319e-05  -6.4303292e-06  -1.0568061e-05  -4.8699674e-06   7.1935534e-07   9.1029497e-05   6.6075867e-05   1.1913318e-04   1.3506247e-04   1.7026396e-04   3.0415143e-04   5.6836084e-05  -9.3773732e-06  -8.0892057e-06   4.3300572e-05   1.1707562e-04  -4.0531141e-05  -1.3585727e-04  -5.5207793e-05  -4.4657419e-05  -1.3256889e-04  -1.1029182e-04  -1.7576066e-05  -8.0137748e-06  -8.6212718e-05  -1.5234665e-04  -8.9316650e-05  -3.1943943e-05  -2.2412268e-05  -3.0654397e-05  -4.0826344e-05  -7.6035096e-05  -4.6680976e-05  -7.9583577e-05  -3.8043563e-05   7.1023828e-06   2.7986252e-05   2.0283433e-05  -1.4353104e-08  -4.8861903e-05  -9.3921509e-06  -6.6445730e-05  -4.2038835e-05  -1.9465517e-05  -3.1023754e-06  -3.1297514e-05  -4.2893984e-05  -1.6650881e-04   1.0627163e-04   6.6837415e-06   2.6853486e-05  -1.1425060e-06  -2.2316311e-05   5.7951310e-05   6.9712731e-05   9.0752494e-06  -1.0721942e-04  -1.6805903e-04  -1.4655878e-04  -1.9863428e-04  -8.4442775e-05  -5.4942701e-05  -1.3894845e-04  -1.6349670e-04  -1.0335278e-04  -5.0502870e-05  -8.1186200e-05  -1.3635510e-05  -8.7390078e-05  -1.1358993e-04  -5.2264308e-05  -4.0615586e-05  -6.5789630e-05  -4.0682540e-05  -8.9124084e-05  -7.7568794e-05  -1.0158676e-04  -9.3392468e-05   1.7035301e-05  -1.5716918e-04  -3.7754343e-05  -3.5689455e-05  -6.7723355e-05  -1.0541195e-04  -5.0723645e-05  -1.9280597e-04  -2.4361581e-04  -1.5113291e-04  -1.6954151e-04  -9.6160870e-05  -1.0886643e-04  -1.9816742e-04  -2.8174838e-04  -1.7650550e-04  -1.4974074e-04  -7.5481463e-05  -8.6161126e-05  -1.9937750e-04  -1.8476319e-04  -1.0243650e-05  -4.5849630e-05   7.3460866e-06  -7.2518765e-05  -1.1801756e-04  -6.7339806e-05  -4.1445448e-05  -1.3356593e-04  -1.9368050e-04  -2.8607177e-04  -4.9408124e-05   9.5070522e-05   2.0796550e-05   9.0503430e-06   5.5879755e-05   1.8458790e-04   5.3947906e-07   3.1334551e-05   2.7100638e-06  -9.9095440e-05   1.5512114e-04   7.3933661e-05  -1.1696819e-04  -8.8662903e-05   5.7143279e-05   1.1591391e-04   2.4971848e-04   4.0669936e-04   8.1688584e-05  -1.7379900e-05   2.5595137e-05   8.5994666e-05  -8.3182269e-05
  -3.2092970e-06  -6.4384049e-06  -2.5737254e-05   2.1407199e-05  -2.6209909e-05  -2.5750550e-05  -7.0329294e-06  -3.7122997e-05  -3.6585834e-05  -2.0185130e-05  -5.0387046e-06  -2.0821103e-05  -3.3822447e-05  -6.8652944e-05  -3.5445921e-06  -4.0683634e-05   1.8624266e-05  -6.5747914e-05  -4.1725628e-05  -4.8375388e-05  -3.5244987e-05  -4.8014762e-05  -4.0890578e-06   4.6368933e-06  -4.6765311e-05  -1.9984384e-05  -4.2594017e-06  -2.5455555e-06   7.2863578e-05  -6.7940807e-05   1.7745716e-04  -3.6621489e-05  -3.3530371e-05  -3.7233158e-05   9.4780547e-06   8.4303852e-05  -9.7877932e-05  -4.7755530e-05  -1.7369509e-04  -1.2365570e-04  -1.5630436e-04  -2.8335918e-04  -1.7387944e-04  -3.5586348e-05   2.9240234e-05  -1.3355402e-05  -1.6253229e-04  -1.1986308e-04  -7.9991846e-05  -1.0600486e-04  -7.2934342e-05  -6.5350654e-05  -9.9092155e-06  -1.8809696e-04  -1.0874252e-04  -1.4961147e-05  -7.1417022e-05  -5.3423235e-05  -7.1478637e-05  -1.5055095e-04  -5.7625316e-05  -1.5128406e-04  -4.4564015e-05  -3.7569792e-05  -4.1575606e-05  -1.6021087e-04  -5.8240743e-05   1.5290046e-06   1.9928882e-05   1.2920746e-05   5.9315954e-05   1.9287860e-05  -1.3884845e-05   1.7496703e-04   2.2605020e-04   2.2503744e-05  -1.0170973e-04  -1.3155136e-05  -8.7360611e-05  -4.0893528e-05  -1.1718799e-04  -1.6596790e-04  -1.0219639e-04  -3.3988862e-05  -1.0124910e-04  -1.5035154e-04  -2.5270054e-04  -2.3280362e-04   1.6413018e-04   3.8806577e-05  -4.1570892e-05  -1.0646818e-04  -2.5645845e-04  -2.8155620e-04  -1.9805603e-04  -2.3737271e-04  -2.5917671e-04  -1.8518231e-05  -1.1749988e-04   6.2466972e-05  -1.4091204e-05  -1.9179188e-04  -9.9909812e-05  -1.1724603e-04   4.0147905e-05   9.0997831e-05   7.7463939e-05  -1.5202800e-04  -2.1711333e-04  -1.3479311e-04  -2.8531404e-05   1.1074979e-04  -1.2194700e-04  -2.0696870e-04   5.4708657e-06  -1.7578986e-05  -7.9245179e-05  -3.7636563e-05  -4.2061893e-05  -1.3243703e-05  -4.3140450e-05  -7.7095510e-05  -4.6757803e-05  -5.3984141e-05  -4.8036501e-05  -2.9770467e-05  -1.1212263e-04  -1.1095256e-04  -9.6552899e-06  -4.9337669e-05   1.2493614e-05  -3.5546207e-05  -2.2265870e-05  -2.1400684e-05  -7.2719626e-06  -2.2481613e-05  -2.4200084e-05  -4.5577090e-05  -7.1843031e-05  -4.2125708e-05  -1.2560276e-05  -5.8755222e-05  -3.5691767e-05  -1.1445020e-04  -9.6862018e-05   2.7483513e-06  -8.3871972e-06  -1.8688569e-05  -2.4459580e-05  -1.2187231e-05  -1.1993231e-04  -1.2492559e-04  -1.9379014e-05  -2.1720277e-05  -6.4885060e-05  -8.1738925e-05  -4.6542055e-05  -1.4244177e-05  -2.3275215e-05  -6.1337121e-05  -3.4746200e-05  -4.0803206e-05  -4.5878097e-05  -3.0877652e-05  -2.4626792e-05  -2.4113671e-05  -3.6882358e-06  -5.5063737e-05  -4.2178230e-05  -4.6334208e-05  -2.1755721e-05  -2.6880510e-05  -4.1604273e-05  -6.4782649e-05  -3.8440042e-05  -5.3983175e-05  -3.9327359e-05  -6.3355590e-05  -1.5566712e-05  -1.9871928e-05  -1.1860637e-07  -5.9462826e-05  -4.7584071e-05  -4.1823754e-05  -6.3504747e-05  -2.7445933e-05  -4.1844080e-05  -3.6503301e-05  -1.4388788e-05  -2.0525918e-05  -1.9101226e-05  -4.8829542e-05   2.6032366e-05   4.9541276e-06  -1.4109886e-05  -3.8698160e-05  -1.7026243e-05  -3.8706964e-05  -1.7409392e-06  -3.4453558e-05  -8.4591569e-05  -5.0734692e-05   3.7363094e-07  -6.0889847e-06  -1.6958538e-05  -1.4267232e-05  -7.4098548e-05  -8.7428324e-05  -7.9635473e-05  -7.1758775e-05  -6.5226570e-05  -1.2474499e-05  -1.9501296e-05  -5.5982333e-05  -3.9096733e-05  -8.1788856e-05  -5.1478133e-05  -4.9938932e-05  -5.5275751e-05  -3.9631384e-05  -8.4441218e-05  -6.4318174e-05  -1.1866119e-04  -6.2656993e-05  -5.4351019e-05  -7.2132093e-05  -6.5439747e-05  -3.9930636e-05  -4.3161829e-07  -5.0400125e-05  -2.0537659e-04  -1.5380357e-04  -1.7139357e-04  -6.3763754e-05  -3.9530873e-05   6.8725785e-05  -9.6670473e-05  -1.1642079e-04  -1.0975648e-04  -1.1475762e-04  -7.3697197e-05   1.1358265e-04   1.9823755e-04  -9.1233776e-05  -7.1741237e-05  -4.8456565e-05  -7.1930550e-05  -8.3815379e-05  -1.3066394e-04  -8.4273833e-05  -5.4065837e-05  -9.2957765e-05  -8.9507632e-05  -8.2576080e-05  -5.8805955e-05  -1.0445273e-04  -4.8661594e-05   3.5672749e-05  -1.6464389e-04  -2.6566715e-05   4.5328735e-07  -1.2855411e-05   2.9321491e-06  -2.7405037e-05  -7.1955358e-05  -1.0318320e-04   3.6817073e-05   3.0134854e-06  -1.1721466e-04   6.8865111e-06  -9.2943116e-05  -6.2834581e-05   4.6505100e-04   5.7628534e-04  -9.2494932e-05  -7.1355825e-05  -8.4398813e-05  -5.7241124e-05   5.7909261e-05   5.6419782e-04   3.4059069e-04  -3.3158722e-05  -7.4484877e-05  -1.2959812e-04  -9.3509786e-05  -7.4796108e-05  -8.3673561e-05  -4.6558865e-05  -4.3125653e-05   2.9280817e-05  -1.7646251e-04  -1.7082115e-04  -6.1178679e-05  -1.9367540e-04   1.7818402e-04   5.8116866e-04   1.1908385e-03  -6.2816263e-05  -1.2434730e-04  -6.3554328e-05   1.2032024e-04   5.0587608e-04   3.8323393e-04   3.6828707e-05   9.8749078e-05  -4.5762886e-07   3.7014235e-05   2.5514612e-04   1.1317171e-05  -4.6408672e-05   1.9737227e-04   1.5233261e-04   8.7597533e-05  -3.0737101e-05  -6.6923272e-05   1.7329200e-05   4.0738698e-04  -3.3672617e-06   1.0347417e-04   7.4227701e-06   7.7296944e-05  -1.5398332e-05  -1.8055718e-06   1.1060698e-04   1.1372195e-04   1.4852727e-05  -9.0529256e-06   2.7286598e-05   1.8169789e-05   9.6489594e-05   6.4510889e-05   1.3472594e-04   1.5154874e-04   1.8840107e-04   3.4878028e-04   7.1657313e-05  -1.0888428e-05  -1.3265532e-05   4.2054719e-05   1.3520700e-04  -3.6970200e-05  -1.5647415e-04  -5.8348606e-05  -5.1265700e-05  -1.3876947e-04  -1.1372782e-04  -1.7100082e-05  -1.0375351e-05  -6.5105853e-05  -1.5316376e-04  -1.0373754e-04  -3.3831232e-05  -2.5877076e-05  -3.5282604e-05  -6.4065191e-05  -6.9229163e-05  -2.9592328e-05  -8.1770949e-05  -4.3724213e-05   5.7100961e-06   2.4733610e-05   1.6232012e-05  -1.0345205e-05  -5.0105527e-05  -1.1259408e-05  -7.1587548e-05  -4.8443728e-05  -2.4217732e-05  -1.0058213e-05  -4.1089838e-05  -3.7036766e-05  -1.6851532e-04   1.4765516e-04   3.0602973e-07   1.8956528e-05  -7.7652975e-06  -2.8057562e-05   7.9950928e-05   9.0811101e-05   7.9380243e-06  -1.3508846e-04  -1.9542577e-04  -1.7307179e-04  -2.4224268e-04  -1.0762638e-04  -6.7107382e-05  -1.5283920e-04  -1.8530676e-04  -1.1913929e-04  -7.6180957e-05  -1.1422303e-04  -3.3735335e-05  -1.0719432e-04  -1.2723875e-04  -6.4202831e-05  -6.0829215e-05  -9.6389390e-05  -6.4793346e-05  -1.1316619e-04  -9.9011055e-05  -1.2013999e-04  -1.1743281e-04   1.7557468e-06  -1.8645587e-04  -5.3140694e-05  -6.6464136e-05  -9.7672768e-05  -1.3942061e-04  -6.7785496e-05  -2.1656206e-04  -2.7472479e-04  -1.7764871e-04  -2.0709016e-04  -1.1734316e-04  -1.3083040e-04  -2.2120034e-04  -3.0481130e-04  -1.9962026e-04  -1.5193349e-04  -7.1267723e-05  -8.2869170e-05  -1.8763956e-04  -1.7599906e-04  -5.2698272e-06  -4.0644295e-05   8.1125633e-06  -7.0646497e-05  -1.2028713e-04  -6.9573112e-05  -3.5505869e-05  -1.5261753e-04  -2.2413436e-04  -3.2243971e-04  -4.6535904e-05   9.3415263e-05   2.3476913e-05   1.2676651e-05   6.8508482e-05   2.0337042e-04   1.4263754e-05   3.5417215e-05   1.0481467e-05  -8.4040290e-05   1.6716117e-04   7.8528523e-05  -1.1192762e-04  -8.4631686e-05   7.4942938e-05   1.5995767e-04   2.7038517e-04   4.2654987e-04   8.5760395e-05  -1.2144167e-05   4.0043737e-05   1.1691831e-04  -5.1490948e-05
  -7.7679557e-06  -1.1540907e-05  -3.7203683e-05   1.3838235e-05  -3.8457777e-05  -3.2961871e-05  -7.5690917e-06  -3.5516629e-05  -4.3618898e-05  -2.9535967e-05  -1.6032821e-05  -3.0235271e-05  -3.3620399e-05  -7.0220033e-05  -1.5404057e-06  -4.8816211e-05   1.4148451e-05  -7.7193922e-05  -5.2011368e-05  -5.9090045e-05  -4.4968832e-05  -5.5673778e-05  -8.2074739e-06  -1.8334758e-07  -5.5356119e-05  -2.6178133e-05  -8.9854968e-06  -1.0354609e-05   7.5111935e-05  -6.7109071e-05   1.8742177e-04  -4.2593361e-05  -4.0592592e-05  -4.1065273e-05   8.9525102e-06   8.6821339e-05  -1.1117260e-04  -5.2223797e-05  -1.9516044e-04  -1.3478853e-04  -1.7674336e-04  -3.1716328e-04  -1.8997445e-04  -4.1913968e-05   3.0173125e-05  -3.1443148e-06  -1.8095998e-04  -1.3417672e-04  -8.9833081e-05  -1.2083202e-04  -7.5269468e-05  -6.5478889e-05  -5.2216930e-06  -2.0902874e-04  -1.3051399e-04  -1.0717959e-05  -8.0657956e-05  -5.9533655e-05  -8.3235800e-05  -1.5822353e-04  -6.2349725e-05  -1.5665301e-04  -4.1119277e-05  -4.0225314e-05  -4.1277829e-05  -1.7303022e-04  -5.4647377e-05   2.0119675e-05   2.9457793e-05   1.4986163e-05   6.5374826e-05   2.8149705e-05  -7.0656064e-06   1.9137085e-04   2.4904215e-04   2.8656195e-05  -1.1013801e-04  -2.0580433e-05  -9.9392164e-05  -5.3690253e-05  -1.3713227e-04  -1.7970134e-04  -1.0302993e-04  -1.6284944e-05  -1.1697218e-04  -1.6661105e-04  -2.7296628e-04  -2.4866186e-04   1.8246941e-04   4.8518632e-05  -3.6000782e-05  -1.1738627e-04  -2.6978943e-04  -3.0461646e-04  -2.1226558e-04  -2.5564808e-04  -2.8224837e-04  -2.4077629e-05  -1.2242585e-04   5.6904706e-05  -2.1749091e-05  -1.9655740e-04  -1.0107522e-04  -1.3156606e-04   4.3279360e-05   1.0831391e-04   7.7127207e-05  -1.5767207e-04  -2.1668667e-04  -1.3994141e-04  -2.6591896e-05   1.5647400e-04  -1.2468519e-04  -2.1479857e-04   3.2505039e-06  -2.1131494e-05  -8.3946807e-05  -4.4463516e-05  -4.5344011e-05  -1.4215363e-05  -4.7716453e-05  -8.5017419e-05  -4.9908209e-05  -5.8086712e-05  -5.4149844e-05  -3.3311624e-05  -1.2347439e-04  -1.2000173e-04  -1.3537582e-05  -4.8512004e-05   9.4829432e-06  -3.6227377e-05  -2.3592099e-05  -2.3521326e-05  -1.0373526e-05  -2.4526023e-05  -2.6750158e-05  -5.1931279e-05  -7.6773546e-05  -4.6044137e-05  -1.6455234e-05  -6.7578663e-05  -4.2129905e-05  -1.2842792e-04  -1.1280854e-04   2.8732818e-06  -7.8426844e-06  -2.0398893e-05  -2.8772714e-05  -1.6897943e-05  -1.3216439e-04  -1.3644955e-04  -2.3818082e-05  -2.5068246e-05  -7.1270652e-05  -9.2426180e-05  -5.2818141e-05  -1.4160392e-05  -4.7823651e-06  -5.7156053e-05  -4.0233191e-05  -4.3223695e-05  -4.9433360e-05  -3.3266608e-05  -2.8780955e-05  -1.7808190e-05   1.4299808e-05  -5.9189347e-05  -4.4258749e-05  -4.7242611e-05  -2.1002616e-05  -2.6847310e-05  -4.4423361e-05  -6.6955760e-05  -4.4697128e-05  -6.0649762e-05  -4.3943027e-05  -6.7450410e-05  -2.0978039e-05  -2.6508905e-05  -1.3032167e-06  -4.7793762e-05  -4.2042126e-05  -4.5233747e-05  -6.6691797e-05  -3.3128461e-05  -5.0203068e-05  -3.0031315e-05  -1.8631052e-05  -2.9609205e-05  -1.6437345e-05  -5.0013452e-05   2.8362172e-05   6.8254374e-06  -1.3216183e-05  -3.8364286e-05  -1.2576564e-05  -3.3973250e-05   1.2002827e-06  -3.4745177e-05  -8.7646748e-05  -5.1592273e-05  -1.9546745e-06  -1.4316716e-07  -1.3554308e-05  -1.2035572e-05  -7.6353634e-05  -8.8913187e-05  -8.0866022e-05  -7.3102936e-05  -6.6348904e-05  -1.1394159e-05  -2.1503768e-05  -5.9338788e-05  -4.1513234e-05  -8.4958117e-05  -5.5843834e-05  -5.3172511e-05  -5.8135556e-05  -3.9249495e-05  -8.9899937e-05  -6.6056117e-05  -1.2418245e-04  -6.5429425e-05  -5.7126074e-05  -7.5267931e-05  -6.7257995e-05  -3.8762344e-05   6.7277478e-06  -5.5922975e-05  -2.0825074e-04  -1.5956920e-04  -1.7229102e-04  -6.2057019e-05  -3.3178274e-05   8.4727743e-05  -9.5177924e-05  -1.1534958e-04  -1.1041811e-04  -1.1438675e-04  -7.7673505e-05   1.3102059e-04   2.1717136e-04  -8.6560173e-05  -7.3472929e-05  -4.1313879e-05  -6.7668724e-05  -7.7294355e-05  -1.2489705e-04  -8.2230187e-05  -5.6495589e-05  -1.0397109e-04  -9.1384029e-05  -8.2467566e-05  -6.3804023e-05  -1.1078596e-04  -6.5931307e-05   5.3574242e-05  -1.8478608e-04  -2.1885415e-05   3.3000175e-06  -1.3966651e-05  -1.9699714e-06  -3.5304989e-05  -6.3191435e-05  -1.1143690e-04   4.3899545e-05   6.2675883e-06  -1.1968680e-04   8.1663230e-06  -8.9055209e-05  -5.7700590e-05   4.8919829e-04   6.1814406e-04  -8.8833941e-05  -6.5054318e-05  -7.8109918e-05  -4.6469435e-05   7.0462224e-05   6.0660247e-04   3.6115094e-04  -2.1153769e-05  -6.5549795e-05  -1.2295515e-04  -8.8237859e-05  -6.3463182e-05  -7.3039629e-05  -3.8485500e-05  -3.9648855e-05   3.2969667e-05  -1.7950363e-04  -1.6829222e-04  -6.3280572e-05  -1.9923433e-04   1.7956577e-04   6.4664270e-04   1.2278485e-03  -5.5097755e-05  -1.2091304e-04  -6.0249217e-05   1.3015499e-04   5.3919223e-04   4.3947070e-04   4.5521625e-05   1.1003877e-04   1.0052903e-05   7.7719647e-05   2.9585036e-04   3.4274059e-05  -4.1204870e-05   2.1871425e-04   1.6895190e-04   9.9544030e-05  -1.8460308e-05  -6.6674167e-05   2.3933278e-05   4.3216422e-04   9.0153592e-07   1.1054683e-04   2.4796783e-05   7.1660973e-05  -9.8433116e-06  -4.5101135e-08   1.2371341e-04   1.2535384e-04   3.8307929e-05  -7.2912980e-06   6.2943797e-05   3.6542256e-05   9.8503931e-05   5.9516164e-05   1.4678218e-04   1.6508070e-04   2.0270346e-04   3.8836179e-04   8.5463869e-05  -1.3714801e-05  -2.0209332e-05   3.8527853e-05   1.5194372e-04  -3.5772305e-05  -1.7900087e-04  -5.9678030e-05  -5.6988026e-05  -1.4171404e-04  -1.1429779e-04  -1.5671274e-05  -1.2310622e-05  -4.2263557e-05  -1.4943731e-04  -1.1590231e-04  -3.5174991e-05  -2.8817163e-05  -3.9412736e-05  -8.7246768e-05  -5.9524471e-05  -1.1199628e-05  -8.1614686e-05  -4.8480889e-05   4.6347469e-06   2.0946673e-05   1.1623736e-05  -2.1370904e-05  -5.0805726e-05  -1.2924395e-05  -7.5613991e-05  -5.3945249e-05  -2.8834747e-05  -1.7084767e-05  -4.9855888e-05  -3.0270966e-05  -1.6294556e-04   1.8975449e-04  -6.3396956e-06   1.0305557e-05  -1.3854699e-05  -3.2397065e-05   1.0021154e-04   1.1372969e-04   1.0386924e-05  -1.6427944e-04  -2.2229949e-04  -1.9944136e-04  -2.8665338e-04  -1.3299328e-04  -7.9779320e-05  -1.6581568e-04  -2.0647514e-04  -1.3397585e-04  -1.0357459e-04  -1.4884984e-04  -5.5972102e-05  -1.2724866e-04  -1.4040207e-04  -7.6413881e-05  -8.1402662e-05  -1.2857254e-04  -8.9882041e-05  -1.3659320e-04  -1.2079248e-04  -1.3869246e-04  -1.4222805e-04  -1.6289094e-05  -2.1485506e-04  -6.8984906e-05  -9.9396634e-05  -1.2866253e-04  -1.7482182e-04  -8.4857861e-05  -2.3944579e-04  -3.0537389e-04  -2.0271208e-04  -2.4347944e-04  -1.3766497e-04  -1.5202674e-04  -2.4239640e-04  -3.2845572e-04  -2.2341570e-04  -1.4738126e-04  -6.2423804e-05  -7.4321783e-05  -1.6399429e-04  -1.5876307e-04   1.2198031e-06  -3.2497650e-05   1.0823265e-05  -6.5706180e-05  -1.1765283e-04  -6.8574003e-05  -2.6180754e-05  -1.6950335e-04  -2.5218030e-04  -3.5262522e-04  -4.0889133e-05   9.0576305e-05   2.5427042e-05   1.6992174e-05   8.2201689e-05   2.2165778e-04   3.1693536e-05   4.0266350e-05   2.1186412e-05  -6.3289997e-05   1.7794367e-04   8.1989281e-05  -1.0086310e-04  -7.6420322e-05   9.5639316e-05   2.0864050e-04   2.8783203e-04   4.3887012e-04   8.8305827e-05  -4.8312929e-06   5.6867097e-05   1.5263071e-04  -1.0533695e-05
  -1.2477316e-05  -1.6937802e-05  -4.8864639e-05   5.3586458e-06  -5.1022994e-05  -4.0262140e-05  -8.2089667e-06  -3.3231589e-05  -5.0363927e-05  -3.9332359e-05  -2.8005384e-05  -4.0038909e-05  -3.2183476e-05  -7.0141399e-05   7.4855974e-07  -5.6843968e-05   8.7152297e-06  -8.8395919e-05  -6.2298739e-05  -6.9610327e-05  -5.4538770e-05  -6.2951213e-05  -1.2728141e-05  -5.8141691e-06  -6.3889312e-05  -3.2780705e-05  -1.3995114e-05  -1.8818960e-05   7.5716649e-05  -6.5025048e-05   1.9398512e-04  -4.8211032e-05  -4.7689515e-05  -4.4541009e-05   8.1497868e-06   8.7940544e-05  -1.2302222e-04  -5.6116101e-05  -2.1381984e-04  -1.4294810e-04  -1.9599907e-04  -3.4671551e-04  -2.0263458e-04  -4.7745531e-05   3.0602754e-05   8.7430311e-06  -1.9781429e-04  -1.4766795e-04  -9.8191013e-05  -1.3442420e-04  -7.6197459e-05  -6.4236600e-05   1.4254309e-06  -2.2888266e-04  -1.5165157e-04  -5.2513004e-06  -8.8685475e-05  -6.4581603e-05  -9.3254278e-05  -1.6226760e-04  -6.5391763e-05  -1.5786908e-04  -3.7026610e-05  -4.0974854e-05  -3.8205531e-05  -1.8284216e-04  -4.7845599e-05   4.1349082e-05   4.1679830e-05   1.8288979e-05   7.2671857e-05   3.8206814e-05   2.0328440e-06   2.0871809e-04   2.6958726e-04   3.3834103e-05  -1.1921383e-04  -2.7388474e-05  -1.1013300e-04  -6.7713626e-05  -1.5596616e-04  -1.9086236e-04  -1.0049795e-04   5.9720066e-06  -1.3121497e-04  -1.8063419e-04  -2.8858298e-04  -2.6115682e-04   2.0065479e-04   5.9457812e-05  -2.7647001e-05  -1.2671335e-04  -2.8014466e-04  -3.2273109e-04  -2.2254888e-04  -2.7071431e-04  -3.0149475e-04  -2.7567485e-05  -1.2418889e-04   5.2064943e-05  -2.8088837e-05  -1.9534643e-04  -1.0022386e-04  -1.4281059e-04   4.7886235e-05   1.2677031e-04   7.8405302e-05  -1.6059276e-04  -2.1153444e-04  -1.4195806e-04  -2.3091738e-05   2.0504043e-04  -1.2271758e-04  -2.2046261e-04   7.6058009e-07  -2.4360601e-05  -8.7236480e-05  -5.1072159e-05  -4.8126735e-05  -1.4872710e-05  -5.2433800e-05  -9.2519309e-05  -5.2038703e-05  -6.1379808e-05  -5.9841080e-05  -3.6476880e-05  -1.3377301e-04  -1.2790084e-04  -1.8211882e-05  -4.6244232e-05   6.0541718e-06  -3.6021083e-05  -2.4481594e-05  -2.5139221e-05  -1.3572082e-05  -2.6080848e-05  -2.8924316e-05  -5.7586574e-05  -8.0533395e-05  -4.9256987e-05  -2.0192965e-05  -7.5589529e-05  -4.8604400e-05  -1.4083937e-04  -1.2908851e-04   3.1556873e-06  -7.0378768e-06  -2.1681804e-05  -3.2732235e-05  -2.2307922e-05  -1.4276237e-04  -1.4562124e-04  -2.8825039e-05  -2.8878470e-05  -7.7195660e-05  -1.0327893e-04  -5.8830824e-05  -1.3998232e-05   1.4069784e-05  -5.1709225e-05  -4.5544427e-05  -4.5192120e-05  -5.2883130e-05  -3.5507601e-05  -3.3838761e-05  -1.1315552e-05   3.2019312e-05  -6.2176920e-05  -4.6002224e-05  -4.7277387e-05  -1.9739324e-05  -2.6431221e-05  -4.7162645e-05  -6.8430952e-05  -5.0901532e-05  -6.7205383e-05  -4.7197582e-05  -7.0570532e-05  -2.7070929e-05  -3.2827822e-05  -3.3589980e-06  -3.3028170e-05  -3.8764380e-05  -4.8542028e-05  -6.8990283e-05  -3.8550213e-05  -5.8335767e-05  -2.5001466e-05  -2.4953198e-05  -3.9041118e-05  -1.2565539e-05  -4.9795246e-05   3.0589213e-05   9.3402556e-06  -1.1645369e-05  -3.6946713e-05  -7.1204596e-06  -2.7657693e-05   4.6218096e-06  -3.4051573e-05  -8.8867260e-05  -5.1153653e-05  -4.8631216e-06   6.4137878e-06  -9.6323420e-06  -8.8805861e-06  -7.6893472e-05  -8.8402112e-05  -8.0280268e-05  -7.2848672e-05  -6.5957771e-05  -9.7703168e-06  -2.2822367e-05  -6.1306399e-05  -4.3216892e-05  -8.6214762e-05  -5.9298975e-05  -5.5265337e-05  -5.9643277e-05  -3.7896924e-05  -9.3159235e-05  -6.6384893e-05  -1.2735873e-04  -6.6945441e-05  -5.8651681e-05  -7.6919602e-05  -6.7384577e-05  -3.6543220e-05   1.3468628e-05  -6.2092600e-05  -2.0771332e-04  -1.6382977e-04  -1.7114077e-04  -5.9680124e-05  -2.6676231e-05   1.0059836e-04  -9.1883883e-05  -1.1226922e-04  -1.0968501e-04  -1.1258385e-04  -7.9684514e-05   1.4739819e-04   2.3344497e-04  -7.9774708e-05  -7.4044432e-05  -3.3084011e-05  -6.2342726e-05  -6.9554059e-05  -1.1699729e-04  -7.9294249e-05  -5.8354742e-05  -1.1495867e-04  -9.1641906e-05  -8.1042955e-05  -6.8543458e-05  -1.1548038e-04  -8.3742336e-05   7.2475315e-05  -2.0346454e-04  -1.6831941e-05   6.4311260e-06  -1.4662804e-05  -7.5183597e-06  -4.5425573e-05  -5.4436691e-05  -1.1886297e-04   5.1796339e-05   9.7711962e-06  -1.1951910e-04   1.0454245e-05  -8.2118091e-05  -5.0366872e-05   5.0968550e-04   6.5417280e-04  -8.3440169e-05  -5.6629312e-05  -6.9345186e-05  -3.2823242e-05   8.3269386e-05   6.4324015e-04   3.7895485e-04  -6.7306642e-06  -5.3224541e-05  -1.1342625e-04  -8.0329990e-05  -4.9508924e-05  -5.9122028e-05  -2.9594380e-05  -3.4807563e-05   3.5166559e-05  -1.8045536e-04  -1.6184779e-04  -6.3562007e-05  -2.0152744e-04   1.8039892e-04   7.0876614e-04   1.2557742e-03  -4.4736376e-05  -1.1379301e-04  -5.5536020e-05   1.3954175e-04   5.7276167e-04   4.9724657e-04   5.6065757e-05   1.2020393e-04   2.1487410e-05   1.2031639e-04   3.3373926e-04   5.8353205e-05  -3.5314662e-05   2.3708100e-04   1.8220419e-04   1.1003139e-04  -4.9165080e-06  -6.5652928e-05   2.9592689e-05   4.4659576e-04   5.7406516e-06   1.1579069e-04   4.2739605e-05   6.3726056e-05  -4.7237856e-06   6.7484032e-07   1.3392580e-04   1.3418368e-04   6.2929097e-05  -5.4135298e-06   1.0066540e-04   5.4908025e-05   9.6742728e-05   5.1065930e-05   1.5446094e-04   1.7491133e-04   2.1250732e-04   4.2069975e-04   9.7468744e-05  -1.8035954e-05  -2.8866738e-05   3.2740604e-05   1.6641055e-04  -3.8041090e-05  -2.0348862e-04  -5.9019373e-05  -6.1515989e-05  -1.4135954e-04  -1.1186665e-04  -1.3185670e-05  -1.3675970e-05  -1.9008019e-05  -1.4125725e-04  -1.2517823e-04  -3.5945215e-05  -3.1071771e-05  -4.2867951e-05  -1.0919605e-04  -4.7193692e-05   7.6764515e-06  -7.9178540e-05  -5.2134045e-05   3.9602733e-06   1.6911115e-05   6.7147965e-06  -3.2652072e-05  -5.1068479e-05  -1.4306865e-05  -7.8436779e-05  -5.8247830e-05  -3.3213898e-05  -2.3790537e-05  -5.7046338e-05  -2.2993117e-05  -1.4943869e-04   2.3125931e-04  -1.2969802e-05   1.2317753e-06  -1.9055801e-05  -3.4999483e-05   1.1768646e-04   1.3785370e-04   1.7013730e-05  -1.9363307e-04  -2.4765617e-04  -2.2455258e-04  -3.3002540e-04  -1.5951698e-04  -9.2332843e-05  -1.7766341e-04  -2.2631205e-04  -1.4708617e-04  -1.3139158e-04  -1.8334484e-04  -7.9100451e-05  -1.4666252e-04  -1.5273746e-04  -8.8441839e-05  -1.0123953e-04  -1.6087072e-04  -1.1442868e-04  -1.5797180e-04  -1.4173752e-04  -1.5625543e-04  -1.6665324e-04  -3.6131009e-05  -2.4106330e-04  -8.4372625e-05  -1.3285376e-04  -1.5908639e-04  -2.1000744e-04  -1.0093684e-04  -2.6084290e-04  -3.3493529e-04  -2.2516508e-04  -2.7703784e-04  -1.5604736e-04  -1.7141490e-04  -2.6109418e-04  -3.5272121e-04  -2.4741760e-04  -1.3595748e-04  -4.9140641e-05  -6.0495863e-05  -1.2871654e-04  -1.3355687e-04   9.0807259e-06  -2.1735602e-05   1.5759511e-05  -5.7875413e-05  -1.1003657e-04  -6.4212431e-05  -1.3588866e-05  -1.8365287e-04  -2.7676734e-04  -3.7516546e-04  -3.2567804e-05   8.7119908e-05   2.6413231e-05   2.1890720e-05   9.6641059e-05   2.3928862e-04   5.2401210e-05   4.5897657e-05   3.4607913e-05  -3.7752194e-05   1.8738332e-04   8.4254396e-05  -8.4107206e-05  -6.4371211e-05   1.1875089e-04   2.6038542e-04   3.0180383e-04   4.4389374e-04   8.9248740e-05   4.3024932e-06   7.5482431e-05   1.9232646e-04   3.8375809e-05
  -1.7100949e-05  -2.2455847e-05  -6.0282186e-05  -3.6801351e-06  -6.3447958e-05  -4.7423637e-05  -8.8276609e-06  -3.0354919e-05  -5.6643799e-05  -4.9269169e-05  -4.0593519e-05  -4.9900585e-05  -2.9645660e-05  -6.8401451e-05   3.3497709e-06  -6.4475332e-05   2.5105247e-06  -9.9060051e-05  -7.2283168e-05  -7.9598239e-05  -6.3596856e-05  -6.9619983e-05  -1.7503249e-05  -1.2144840e-05  -7.2240113e-05  -3.9643228e-05  -1.9154377e-05  -2.7751422e-05   7.4699346e-05  -6.1970177e-05   1.9720115e-04  -5.3277980e-05  -5.4635814e-05  -4.7654986e-05   7.0447020e-06   8.7833170e-05  -1.3312469e-04  -5.9528614e-05  -2.2913940e-04  -1.4785587e-04  -2.1386712e-04  -3.7150049e-04  -2.1164055e-04  -5.2964497e-05   3.0521874e-05   2.1776254e-05  -2.1289363e-04  -1.6029177e-04  -1.0495047e-04  -1.4658355e-04  -7.5906238e-05  -6.1943827e-05   9.8416598e-06  -2.4751919e-04  -1.7142158e-04   1.1174921e-06  -9.5332633e-05  -6.8519362e-05  -1.0107497e-04  -1.6266236e-04  -6.6647419e-05  -1.5502442e-04  -3.2881052e-05  -3.9733139e-05  -3.2333081e-05  -1.8962426e-04  -3.8121087e-05   6.4559087e-05   5.6149360e-05   2.2931020e-05   8.1451484e-05   4.9134447e-05   1.3157486e-05   2.2707743e-04   2.8699820e-04   3.7435615e-05  -1.2912092e-04  -3.2820544e-05  -1.1908315e-04  -8.2631243e-05  -1.7294715e-04  -1.9913619e-04  -9.4374157e-05   3.2630882e-05  -1.4342238e-04  -1.9189554e-04  -2.9901635e-04  -2.7001174e-04   2.1872321e-04   7.1634090e-05  -1.6441626e-05  -1.3420169e-04  -2.8772210e-04  -3.3543660e-04  -2.2858372e-04  -2.8232825e-04  -3.1656090e-04  -2.8443178e-05  -1.2274253e-04   4.8831093e-05  -3.2306564e-05  -1.8793187e-04  -9.7386495e-05  -1.5017948e-04   5.4502059e-05   1.4618990e-04   8.2443633e-05  -1.6096730e-04  -2.0223692e-04  -1.4063648e-04  -1.7875648e-05   2.5483106e-04  -1.1589931e-04  -2.2363309e-04  -1.9315734e-06  -2.7175978e-05  -8.9021687e-05  -5.7258809e-05  -5.0365345e-05  -1.5182031e-05  -5.7379740e-05  -9.9580607e-05  -5.3037120e-05  -6.3798587e-05  -6.4948401e-05  -3.9183011e-05  -1.4274914e-04  -1.3462835e-04  -2.3718899e-05  -4.2665494e-05   2.3932260e-06  -3.4952802e-05  -2.4894557e-05  -2.6155480e-05  -1.6767661e-05  -2.7132476e-05  -3.0714183e-05  -6.2417590e-05  -8.2991283e-05  -5.1690413e-05  -2.3611481e-05  -8.2436966e-05  -5.5042957e-05  -1.5122857e-04  -1.4558523e-04   3.6203071e-06  -5.9903060e-06  -2.2438229e-05  -3.6199595e-05  -2.8498801e-05  -1.5145003e-04  -1.5210898e-04  -3.4403965e-05  -3.3210607e-05  -8.2628003e-05  -1.1419347e-04  -6.4487476e-05  -1.3862854e-05   3.1849469e-05  -4.5492753e-05  -5.0509470e-05  -4.6734093e-05  -5.6262446e-05  -3.7652817e-05  -3.9751045e-05  -5.1131706e-06   4.8187102e-05  -6.3998275e-05  -4.7540877e-05  -4.6527868e-05  -1.8098728e-05  -2.5773898e-05  -4.9959877e-05  -6.9407561e-05  -5.6917491e-05  -7.3560140e-05  -4.8923651e-05  -7.2754631e-05  -3.3700740e-05  -3.8541301e-05  -6.4686899e-06  -1.5935251e-05  -3.9041746e-05  -5.1756147e-05  -7.0417953e-05  -4.3441314e-05  -6.5977189e-05  -2.2466586e-05  -3.3296754e-05  -4.8357769e-05  -7.5921235e-06  -4.8186037e-05   3.2692348e-05   1.2454651e-05  -9.4104883e-06  -3.4509942e-05  -7.8161020e-07  -1.9918074e-05   8.4098245e-06  -3.2427646e-05  -8.8280380e-05  -4.9447489e-05  -8.2476443e-06   1.3371740e-05  -5.3332722e-06  -4.9187493e-06  -7.5817468e-05  -8.5998117e-05  -7.7968047e-05  -7.1067381e-05  -6.4144275e-05  -7.6684935e-06  -2.3375300e-05  -6.1842128e-05  -4.4134601e-05  -8.5592432e-05  -6.1736853e-05  -5.6121615e-05  -5.9746277e-05  -3.5613248e-05  -9.4108306e-05  -6.5387278e-05  -1.2823316e-04  -6.7191900e-05  -5.8872130e-05  -7.7114565e-05  -6.5776899e-05  -3.3361942e-05   1.9341926e-05  -6.8870205e-05  -2.0418173e-04  -1.6682566e-04  -1.6839407e-04  -5.6865198e-05  -2.0501772e-05   1.1579625e-04  -8.7054563e-05  -1.0752627e-04  -1.0782523e-04  -1.0963781e-04  -7.9741481e-05   1.6226228e-04   2.4678640e-04  -7.1259099e-05  -7.3510913e-05  -2.4116257e-05  -5.6235113e-05  -6.1107971e-05  -1.0756148e-04  -7.5774257e-05  -5.9591333e-05  -1.2560592e-04  -9.0184978e-05  -7.8469423e-05  -7.2832179e-05  -1.1833606e-04  -1.0139661e-04   9.1809196e-05  -2.2028241e-04  -1.1646094e-05   9.8733239e-06  -1.4749115e-05  -1.3390450e-05  -5.7706192e-05  -4.6130660e-05  -1.2494118e-04   6.0297494e-05   1.3342317e-05  -1.1677237e-04   1.3730094e-05  -7.2376396e-05  -4.1073590e-05   5.2669199e-04   6.8386839e-04  -7.6766350e-05  -4.6453330e-05  -5.8542803e-05  -1.6797891e-05   9.5895282e-05   6.7364351e-04   3.9393844e-04   9.5988053e-06  -3.8122048e-05  -1.0143844e-04  -7.0011291e-05  -3.3464002e-05  -4.2518255e-05  -2.0342480e-05  -2.8822069e-05   3.5795766e-05  -1.7962629e-04  -1.5196381e-04  -6.2002981e-05  -2.0077957e-04   1.8124921e-04   7.6646529e-04   1.2763129e-03  -3.2135288e-05  -1.0331990e-04  -4.9679072e-05   1.4840871e-04   6.0677663e-04   5.5545326e-04   6.8189423e-05   1.2895443e-04   3.3362915e-05   1.6294610e-04   3.6743593e-04   8.2419172e-05  -2.9246488e-05   2.5164012e-04   1.9148674e-04   1.1872670e-04   9.2049470e-06  -6.4195227e-05   3.3824543e-05   4.5023934e-04   1.0883146e-05   1.1889551e-04   6.0436354e-05   5.3938666e-05  -5.3092137e-07   2.0886344e-08   1.4066310e-04   1.3971381e-04   8.7647645e-05  -3.5741956e-06   1.3893749e-04   7.2390366e-05   9.1075269e-05   3.9312953e-05   1.5717303e-04   1.8046465e-04   2.1741225e-04   4.4387819e-04   1.0697297e-04  -2.3943144e-05  -3.9061194e-05   2.4842046e-05   1.7777606e-04  -4.4633704e-05  -2.2980696e-04  -5.6290691e-05  -6.4609119e-05  -1.3782747e-04  -1.0642368e-04  -9.5869733e-06  -1.4361198e-05   3.4312868e-06  -1.2891307e-04  -1.3111513e-04  -3.6128018e-05  -3.2506311e-05  -4.5497585e-05  -1.2886318e-04  -3.2608316e-05   2.6299349e-05  -7.4643324e-05  -5.4559954e-05   3.7238075e-06   1.2915884e-05   1.7585865e-06  -4.3759773e-05  -5.1002517e-05  -1.5347279e-05  -8.0037832e-05  -6.1133008e-05  -3.7273466e-05  -2.9821571e-05  -6.2223763e-05  -1.5592323e-05  -1.2805815e-04   2.7100934e-04  -1.9334693e-05  -7.9683769e-06  -2.3116130e-05  -3.5675667e-05   1.3159419e-04   1.6249450e-04   2.8100380e-05  -2.2189518e-04  -2.7045940e-04  -2.4724766e-04  -3.7042450e-04  -1.8597806e-04  -1.0405636e-04  -1.8820956e-04  -2.4422095e-04  -1.5773704e-04  -1.5828283e-04  -2.1593190e-04  -1.0174643e-04  -1.6458567e-04  -1.6396124e-04  -9.9878612e-05  -1.1931231e-04  -1.9179541e-04  -1.3688519e-04  -1.7593416e-04  -1.6063235e-04  -1.7178369e-04  -1.8954925e-04  -5.6662757e-05  -2.6383629e-04  -9.8401021e-05  -1.6516495e-04  -1.8732735e-04  -2.4334189e-04  -1.1505681e-04  -2.8021819e-04  -3.6284548e-04  -2.4394211e-04  -3.0622415e-04  -1.7148356e-04  -1.8803138e-04  -2.7672148e-04  -3.7739794e-04  -2.7104633e-04  -1.1800328e-04  -3.1951876e-05  -4.1733425e-05  -8.2840876e-05  -1.0138954e-04   1.8045935e-05  -8.8995033e-06   2.3030245e-05  -4.7545170e-05  -9.7739174e-05  -5.6669889e-05   1.8870598e-06  -1.9471706e-04  -2.9704459e-04  -3.8901992e-04  -2.1862498e-05   8.3541698e-05   2.6168941e-05   2.7151208e-05   1.1138577e-04   2.5599382e-04   7.5672371e-05   5.2209143e-05   5.0251091e-05  -8.6346154e-06   1.9533883e-04   8.5231921e-05  -6.2400885e-05  -4.9107492e-05   1.4358470e-04   3.1335070e-04   3.1211630e-04   4.4208824e-04   8.8522280e-05   1.4834016e-05   9.5130478e-05   2.3489176e-04   9.3436487e-05
  -2.1411835e-05  -2.7921243e-05  -7.1038651e-05  -1.2919021e-05  -7.5292648e-05  -5.4223860e-05  -9.2653927e-06  -2.6966712e-05  -6.2313047e-05  -5.9036558e-05  -5.3418858e-05  -5.9487718e-05  -2.6231889e-05  -6.5050431e-05   6.2953221e-06  -7.1422340e-05  -4.2524185e-06  -1.0890980e-04  -8.1676940e-05  -8.8745570e-05  -7.1815285e-05  -7.5475080e-05  -2.2365910e-05  -1.9030635e-05  -8.0293700e-05  -4.6593704e-05  -2.4331555e-05  -3.6964537e-05   7.2160621e-05  -5.8256099e-05   1.9731183e-04  -5.7618329e-05  -6.1245829e-05  -5.0416536e-05   5.6190929e-06   8.6731595e-05  -1.4127624e-04  -6.2590691e-05  -2.4081536e-04  -1.4943562e-04  -2.3026818e-04  -3.9138334e-04  -2.1702666e-04  -5.7525467e-05   2.9881922e-05   3.5359267e-05  -2.2610329e-04  -1.7208112e-04  -1.1014369e-04  -1.5725722e-04  -7.4619097e-05  -5.8982790e-05   1.9679745e-05  -2.6486374e-04  -1.8917998e-04   7.9808423e-06  -1.0054104e-04  -7.1406297e-05  -1.0640985e-04  -1.5961941e-04  -6.6142278e-05  -1.4846025e-04  -2.9285560e-05  -3.6574071e-05  -2.3840282e-05  -1.9355170e-04  -2.5990738e-05   8.9030078e-05   7.2113193e-05   2.8908041e-05   9.1866080e-05   6.0558000e-05   2.5939965e-05   2.4632955e-04   3.0068919e-04   3.8946880e-05  -1.3993267e-04  -3.6135994e-05  -1.2580216e-04  -9.8025189e-05  -1.8738982e-04  -2.0429938e-04  -8.4549024e-05   6.3392671e-05  -1.5313545e-04  -1.9998043e-04  -3.0398036e-04  -2.7504124e-04   2.3669388e-04   8.5038049e-05  -2.4143871e-06  -1.3968140e-04  -2.9279142e-04  -3.4249263e-04  -2.3021979e-04  -2.9035859e-04  -3.2727353e-04  -2.6281225e-05  -1.1818016e-04   4.7995449e-05  -3.3675172e-05  -1.7435569e-04  -9.2608097e-05  -1.5302164e-04   6.3571657e-05   1.6630204e-04   9.0251230e-05  -1.5906570e-04  -1.8954606e-04  -1.3586260e-04  -1.0838022e-05   3.0408869e-04  -1.0434213e-04  -2.2386164e-04  -4.7532996e-06  -2.9519848e-05  -8.9247661e-05  -6.2821042e-05  -5.2016667e-05  -1.5120194e-05  -6.2645257e-05  -1.0622499e-04  -5.2829950e-05  -6.5303398e-05  -6.9317510e-05  -4.1359760e-05  -1.5017652e-04  -1.4023603e-04  -3.0078137e-05  -3.7966878e-05  -1.2966081e-06  -3.3084956e-05  -2.4803197e-05  -2.6494442e-05  -1.9859520e-05  -2.7699962e-05  -3.2135544e-05  -6.6354062e-05  -8.4053522e-05  -5.3308590e-05  -2.6567639e-05  -8.7811728e-05  -6.1389488e-05  -1.5925667e-04  -1.6220379e-04   4.2811345e-06  -4.7180776e-06  -2.2586732e-05  -3.9069248e-05  -3.5546180e-05  -1.5805274e-04  -1.5571700e-04  -4.0549832e-05  -3.8100227e-05  -8.7564925e-05  -1.2507128e-04  -6.9728870e-05  -1.3854969e-05   4.7153576e-05  -3.9058173e-05  -5.4970312e-05  -4.7888189e-05  -5.9577922e-05  -3.9755903e-05  -4.6384664e-05   3.5513647e-07   6.1608664e-05  -6.4704331e-05  -4.9013310e-05  -4.5111605e-05  -1.6227282e-05  -2.5022247e-05  -5.2931021e-05  -7.0115871e-05  -6.2622895e-05  -7.9635807e-05  -4.9071124e-05  -7.4091148e-05  -4.0675170e-05  -4.3401916e-05  -1.0772519e-05   2.5362843e-06  -4.4000913e-05  -5.4870595e-05  -7.1012366e-05  -4.7545794e-05  -7.2888682e-05  -2.3342693e-05  -4.3418745e-05  -5.7094279e-05  -1.6904450e-06  -4.5267525e-05   3.4647699e-05   1.6072718e-05  -6.5599715e-06  -3.1162342e-05   6.2616856e-06  -1.0969410e-05   1.2437536e-05  -2.9978120e-05  -8.5994895e-05  -4.6558420e-05  -1.1962261e-05   2.0515014e-05  -8.1330494e-07  -3.1866451e-07  -7.3306412e-05  -8.1888484e-05  -7.4091474e-05  -6.7893609e-05  -6.1062846e-05  -5.1802811e-06  -2.3130007e-05  -6.0984710e-05  -4.4223526e-05  -8.3225379e-05  -6.3099893e-05  -5.5702066e-05  -5.8474948e-05  -3.2474938e-05  -9.2814406e-05  -6.3213361e-05  -1.2696149e-04  -6.6210891e-05  -5.7793010e-05  -7.5974310e-05  -6.2468444e-05  -2.9346097e-05   2.3965332e-05  -7.6150359e-05  -1.9818030e-04  -1.6881567e-04  -1.6450342e-04  -5.3818832e-05  -1.5076606e-05   1.2981585e-04  -8.0999589e-05  -1.0150691e-04  -1.0510447e-04  -1.0582930e-04  -7.8004155e-05   1.7525615e-04   2.5709041e-04  -6.1442745e-05  -7.1953476e-05  -1.4735543e-05  -4.9605364e-05  -5.2435329e-05  -9.7194467e-05  -7.1951307e-05  -6.0147994e-05  -1.3555589e-04  -8.6946511e-05  -7.4938834e-05  -7.6450620e-05  -1.1920798e-04  -1.1821963e-04   1.1099486e-04  -2.3498302e-04  -6.5325453e-06   1.3656975e-05  -1.4043131e-05  -1.9226848e-05  -7.1947694e-05  -3.8554883e-05  -1.2910365e-04   6.9112674e-05   1.6769032e-05  -1.1161142e-04   1.7882689e-05  -6.0178624e-05  -3.0149414e-05   5.4039523e-04   7.0689142e-04  -6.9297472e-05  -3.4954068e-05  -4.6204250e-05   1.0049939e-06   1.0792005e-04   6.9752866e-04   4.0604520e-04   2.7228661e-05  -2.1029332e-05  -8.7471690e-05  -5.7576903e-05  -1.5917101e-05  -2.3950845e-05  -1.1153914e-05  -2.1963610e-05   3.4921080e-05  -1.7731596e-04  -1.3928075e-04  -5.8688874e-05  -1.9733244e-04   1.8256326e-04   8.1882837e-04   1.2909833e-03  -1.7820492e-05  -9.0007081e-05  -4.2982628e-05   1.5667464e-04   6.4114338e-04   6.1282702e-04   8.1457632e-05   1.3604389e-04   4.5181456e-05   2.0382366e-04   3.9580215e-04   1.0533263e-04  -2.3513239e-05   2.6168056e-04   1.9640506e-04   1.2542763e-04   2.3208085e-05  -6.2675919e-05   3.6210062e-05   4.4335479e-04   1.6019299e-05   1.1960390e-04   7.7152162e-05   4.2834696e-05   2.2869491e-06  -2.2833270e-06   1.4352514e-04   1.4159485e-04   1.1139472e-04  -1.9543698e-06   1.7625975e-04   8.8229233e-05   8.1566573e-05   2.4575404e-05   1.5462963e-04   1.8137820e-04   2.1730237e-04   4.5642647e-04   1.1340650e-04  -3.1432380e-05  -5.0503334e-05   1.5097931e-05   1.8532502e-04  -5.6060363e-05  -2.5762518e-04  -5.1527105e-05  -6.6112441e-05  -1.3139897e-04  -9.8093421e-05  -4.8758019e-06  -1.4298003e-05   2.3968612e-05  -1.1288337e-04  -1.3346344e-04  -3.5723486e-05  -3.3021752e-05  -4.7190467e-05  -1.4538973e-04  -1.6228440e-05   4.4037039e-05  -6.8293818e-05  -5.5689599e-05   3.9253312e-06   9.2501777e-06  -3.0006208e-06  -5.4297406e-05  -5.0714258e-05  -1.6003729e-05  -8.0467490e-05  -6.2467274e-05  -4.0947399e-05  -3.4882493e-05  -6.5090131e-05  -8.4163976e-06  -9.9303375e-05   3.0803276e-04  -2.5228509e-05  -1.7038191e-05  -2.5896052e-05  -3.4385178e-05   1.4146356e-04   1.8692543e-04   4.3590805e-05  -2.4777585e-04  -2.8970309e-04  -2.6642059e-04  -4.0596199e-04  -2.1105577e-04  -1.1421597e-04  -1.9736915e-04  -2.5977074e-04  -1.6529502e-04  -1.8293247e-04  -2.4490610e-04  -1.2248800e-04  -1.8028795e-04  -1.7389382e-04  -1.1039786e-04  -1.3474373e-04  -2.1994478e-04  -1.5579654e-04  -1.8924416e-04  -1.7630510e-04  -1.8425995e-04  -2.0979135e-04  -7.6695564e-05  -2.8207318e-04  -1.1023947e-04  -1.9473653e-04  -2.1185158e-04  -2.7326409e-04  -1.2635694e-04  -2.9718139e-04  -3.8864489e-04  -2.5813989e-04  -3.2971461e-04  -1.8310391e-04  -2.0104895e-04  -2.8881567e-04  -4.0203073e-04  -2.9363934e-04  -9.4322879e-05  -1.1717234e-05  -1.8739274e-05  -2.8131459e-05  -6.3730859e-05   2.7722340e-05   5.2940165e-06   3.2559428e-05  -3.5299006e-05  -8.1407739e-05  -4.6441362e-05   1.9594980e-05  -2.0258571e-04  -3.1239595e-04  -3.9363130e-04  -9.2361511e-06   8.0207687e-05   2.4401009e-05   3.2446527e-05   1.2587323e-04   2.7137198e-04   1.0053807e-04   5.8975154e-05   6.7354619e-05   2.2624639e-05   2.0160945e-04   8.4788277e-05  -3.6852364e-05  -3.1485043e-05   1.6927500e-04   3.6553501e-04   3.1863307e-04   4.3408327e-04   8.6053744e-05   2.6190054e-05   1.1490773e-04   2.7895681e-04   1.5245646e-04
  -2.5205054e-05  -3.3166821e-05  -8.0756072e-05  -2.2008631e-05  -8.6155470e-05  -6.0456815e-05  -9.3374361e-06  -2.3136729e-05  -6.7258442e-05  -6.8335064e-05  -6.6103139e-05  -6.8481216e-05  -2.2235455e-05  -6.0206033e-05   9.6164905e-06  -7.7415498e-05  -1.1341277e-05  -1.1769259e-04  -9.0219540e-05  -9.6783188e-05  -7.8914464e-05  -8.0340150e-05  -2.7139051e-05  -2.6294912e-05  -8.7942383e-05  -5.3442371e-05  -2.9400271e-05  -4.6268571e-05   6.8277609e-05  -5.4191465e-05   1.9472029e-04  -6.1086340e-05  -6.7338387e-05  -5.2842030e-05   3.8676959e-06   8.4909376e-05  -1.4737098e-04  -6.5445390e-05  -2.4879128e-04  -1.4782911e-04  -2.4523663e-04  -4.0660460e-04  -2.1907455e-04  -6.1455071e-05   2.8580430e-05   4.8869042e-05  -2.3744873e-04  -1.8314426e-04  -1.1396166e-04  -1.6653415e-04  -7.2574370e-05  -5.5760442e-05   3.0452595e-05  -2.8089161e-04  -2.0440935e-04   1.4867431e-05  -1.0436744e-04  -7.3404371e-05  -1.0916342e-04  -1.5357047e-04  -6.4030409e-05  -1.3874525e-04  -2.6796653e-05  -3.1730235e-05  -1.3101740e-05  -1.9497168e-04  -1.2168009e-05   1.1403483e-04   8.8547610e-05   3.6104899e-05   1.0395267e-04   7.2079056e-05   3.9918472e-05   2.6615185e-04   3.1022521e-04   3.7997665e-05  -1.5160040e-04  -3.6640742e-05  -1.2993428e-04  -1.1339076e-04  -1.9869606e-04  -2.0623590e-04  -7.1062454e-05   9.7821687e-05  -1.6000474e-04  -2.0459040e-04  -3.0342399e-04  -2.7616926e-04   2.5454181e-04   9.9617587e-05   1.4309300e-05  -1.4304818e-04  -2.9565341e-04  -3.4389597e-04  -2.2748214e-04  -2.9476447e-04  -3.3362308e-04  -2.0791226e-05  -1.1072040e-04   5.0211829e-05  -3.1587874e-05  -1.5493959e-04  -8.5934182e-05  -1.5088748e-04   7.5424774e-05   1.8676979e-04   1.0260645e-04  -1.5522731e-04  -1.7430976e-04  -1.2762608e-04  -1.9421592e-06   3.5102103e-04  -8.8395090e-05  -2.2061313e-04  -7.6310662e-06  -3.1369832e-05  -8.7897781e-05  -6.7566942e-05  -5.3037170e-05  -1.4673572e-05  -6.8316053e-05  -1.1250902e-04  -5.1384860e-05  -6.5875018e-05  -7.2807244e-05  -4.2947251e-05  -1.5588004e-04  -1.4484670e-04  -3.7283888e-05  -3.2383031e-05  -4.8002612e-06  -3.0514731e-05  -2.4191540e-05  -2.6107687e-05  -2.2750539e-05  -2.7830688e-05  -3.3223381e-05  -6.9379553e-05  -8.3664904e-05  -5.4111923e-05  -2.8942879e-05  -9.1462122e-05  -6.7601172e-05  -1.6472573e-04  -1.7886126e-04   5.1406551e-06  -3.2371868e-06  -2.2069042e-05  -4.1273881e-05  -4.3506015e-05  -1.6250498e-04  -1.5639309e-04  -4.7240917e-05  -4.3554739e-05  -9.2032567e-05  -1.3581384e-04  -7.4530163e-05  -1.4059990e-05   5.8710574e-05  -3.2968780e-05  -5.8788282e-05  -4.8695563e-05  -6.2800668e-05  -4.1857102e-05  -5.3534299e-05   4.7062351e-06   7.1269975e-05  -6.4422484e-05  -5.0546184e-05  -4.3161190e-05  -1.4268113e-05  -2.4315551e-05  -5.6158178e-05  -7.0795582e-05  -6.7905466e-05  -8.5371192e-05  -4.7703988e-05  -7.4706035e-05  -4.7759184e-05  -4.7212426e-05  -1.6353607e-05   2.1312323e-05  -5.4496004e-05  -5.7860504e-05  -7.0817187e-05  -5.0634098e-05  -7.8869942e-05  -2.8320100e-05  -5.4907004e-05  -6.4804491e-05   4.9063296e-06  -4.1190271e-05   3.6426508e-05   2.0048135e-05  -3.1778932e-06  -2.7048229e-05   1.3777004e-05  -1.0742643e-06   1.6570014e-05  -2.6851179e-05  -8.2194226e-05  -4.2625124e-05  -1.5830196e-05   2.7625630e-05   3.7566896e-06   4.7098993e-06  -6.9605402e-05  -7.6333192e-05  -6.8874407e-05  -6.3517900e-05  -5.6920837e-05  -2.4198757e-06  -2.2106031e-05  -5.8850248e-05  -4.3476225e-05  -7.9339268e-05  -6.3380498e-05  -5.4026633e-05  -5.5942427e-05  -2.8591802e-05  -8.9518483e-05  -6.0068713e-05  -1.2379707e-04  -6.4096642e-05  -5.5482909e-05  -7.3704819e-05  -5.7566501e-05  -2.4657847e-05   2.7052388e-05  -8.3754296e-05  -1.9030929e-04  -1.7006110e-04  -1.5989448e-04  -5.0713922e-05  -1.0743597e-05   1.4220788e-04  -7.4058255e-05  -9.4616507e-05  -1.0177632e-04  -1.0141130e-04  -7.4764282e-05   1.8613871e-04   2.6442706e-04  -5.0782148e-05  -6.9477258e-05  -5.2249351e-06  -4.2668341e-05  -4.3950459e-05  -8.6481051e-05  -6.8061945e-05  -5.9959983e-05  -1.4443696e-04  -8.1898101e-05  -7.0659194e-05  -7.9159295e-05  -1.1801242e-04  -1.3359606e-04   1.2946028e-04  -2.4745630e-04  -1.6529264e-06   1.7813176e-05  -1.2388931e-05  -2.4655513e-05  -8.7810363e-05  -3.1823285e-05  -1.3077172e-04   7.7884799e-05   1.9835561e-05  -1.0429812e-04   2.2718122e-05  -4.5955314e-05  -1.7982986e-05   5.5095450e-04   7.2306957e-04  -6.1518617e-05  -2.2580647e-05  -3.2861551e-05   1.9914112e-05   1.1895586e-04   7.1479791e-04   4.1522445e-04   4.5497085e-05  -2.8547282e-06  -7.2042033e-05  -4.3380102e-05   2.5134152e-06  -4.2339081e-06  -2.3991388e-06  -1.4543121e-05   3.2723742e-05  -1.7379752e-04  -1.2456764e-04  -5.3817822e-05  -1.9161882e-04   1.8465313e-04   8.6512944e-04   1.3010167e-03  -2.4175781e-06  -7.4516667e-05  -3.5781340e-05   1.6425034e-04   6.7547060e-04   6.6799227e-04   9.5297982e-05   1.4129231e-04   5.6450107e-05   2.4135504e-04   4.1802119e-04   1.2602437e-04  -1.8604717e-05   2.6666941e-04   1.9680138e-04   1.3008512e-04   3.6424843e-05  -6.1469090e-05   3.6419610e-05   4.2686359e-04   2.0824942e-05   1.1774146e-04   9.2267566e-05   3.1009460e-05   3.3665326e-06  -6.4158611e-06   1.4232727e-04   1.3965602e-04   1.3315567e-04  -7.4645045e-07   2.1123271e-04   1.0183142e-04   6.8482968e-05   7.3214361e-06   1.4686852e-04   1.7753760e-04   2.1234792e-04   4.5745191e-04   1.1637387e-04  -4.0391954e-05  -6.2804600e-05   3.8796385e-06   1.8852651e-04  -7.2422808e-05  -2.8641443e-04  -4.4880096e-05  -6.5964007e-05  -1.2249930e-04  -8.7150526e-05   8.7668572e-07  -1.3459060e-05   4.1718990e-05  -9.3814255e-05  -1.3219423e-04  -3.4748924e-05  -3.2556902e-05  -4.7879859e-05  -1.5816057e-04   1.4068850e-06   6.0378390e-05  -6.0498330e-05  -5.5502301e-05   4.5270592e-06   6.1814839e-06  -7.3413558e-06  -6.3916932e-05  -5.0308555e-05  -1.6254832e-05  -7.9847225e-05  -6.2213967e-05  -4.4190383e-05  -3.8755276e-05  -6.5500953e-05  -1.7693963e-06  -6.4103391e-05   3.4157384e-04  -3.0491348e-05  -2.5755952e-05  -2.7364491e-05  -3.1237538e-05   1.4715428e-04   2.1042810e-04   6.3101587e-05  -2.7003423e-04  -3.0450716e-04  -2.8106886e-04  -4.3489024e-04  -2.3341025e-04  -1.2210177e-04  -2.0512672e-04  -2.7273490e-04  -1.6928827e-04  -2.0414137e-04  -2.6872063e-04  -1.3995183e-04  -1.9322847e-04  -1.8247776e-04  -1.1979195e-04  -1.4686373e-04  -2.4408822e-04  -1.6989415e-04  -1.9690053e-04  -1.8770396e-04  -1.9276968e-04  -2.2636051e-04  -9.5056617e-05  -2.9489554e-04  -1.1919044e-04  -2.2014034e-04  -2.3130600e-04  -2.9838614e-04  -1.3415927e-04  -3.1152830e-04  -4.1203358e-04  -2.6706516e-04  -3.4648337e-04  -1.9023985e-04  -2.0984939e-04  -2.9706395e-04  -4.2595984e-04  -3.1451692e-04  -6.6151477e-05   1.0420639e-05   7.4457472e-06   3.3008747e-05  -2.2432836e-05   3.7608504e-05   2.0000237e-05   4.4086207e-05  -2.1890747e-05  -6.2034087e-05  -3.4322244e-05   3.8646449e-05  -2.0738526e-04  -3.2247378e-04  -3.8894555e-04   4.6902004e-06   7.7304878e-05   2.0791661e-05   3.7355106e-05   1.3944813e-04   2.8489551e-04   1.2581403e-04   6.5852247e-05   8.4923343e-05   5.4461136e-05   2.0593114e-04   8.2740466e-05  -8.8708791e-06  -1.2547675e-05   1.9484350e-04   4.1490537e-04   3.2125468e-04   4.2058891e-04   8.1762813e-05   3.7672098e-05   1.3383734e-04   3.2298295e-04   2.1299692e-04
  -2.8312209e-05  -3.8037459e-05  -8.9113495e-05  -3.0627130e-05  -9.5693544e-05  -6.5938637e-05  -8.8512456e-06  -1.8924768e-05  -7.1401050e-05  -7.6886315e-05  -7.8282348e-05  -7.6589183e-05  -1.7996679e-05  -5.4043190e-05   1.3337580e-05  -8.2221829e-05  -1.8518729e-05  -1.2518702e-04  -9.7686256e-05  -1.0349178e-04  -8.4672505e-05  -8.4074394e-05  -3.1642945e-05  -3.3732445e-05  -9.5080099e-05  -5.9987781e-05  -3.4242331e-05  -5.5475855e-05   6.3289203e-05  -5.0063847e-05   1.8995353e-04  -6.3571189e-05  -7.2742134e-05  -5.4946652e-05   1.8032092e-06   8.2658153e-05  -1.5139431e-04  -6.8229884e-05  -2.5325840e-04  -1.4337864e-04  -2.5890287e-04  -4.1774094e-04  -2.1828881e-04  -6.4854597e-05   2.6458596e-05   6.1700940e-05  -2.4702770e-04  -1.9363601e-04  -1.1672691e-04  -1.7463293e-04  -6.9989763e-05  -5.2667327e-05   4.1557406e-05  -2.9561583e-04  -2.1675540e-04   2.1273139e-05  -1.0697345e-04  -7.4766146e-05  -1.0944127e-04  -1.4514131e-04  -6.0586410e-05  -1.2663400e-04  -2.5869685e-05  -2.5576284e-05  -6.6188977e-07  -1.9436552e-04   2.4763474e-06   1.3888075e-04   1.0421809e-04   4.4288448e-05   1.1761800e-04   8.3301724e-05   5.4577647e-05   2.8601717e-04   3.1536437e-04   3.4404047e-05  -1.6391602e-04  -3.3751211e-05  -1.3121292e-04  -1.2815589e-04  -2.0637774e-04  -2.0492159e-04  -5.4088169e-05   1.3536451e-04  -1.6379870e-04  -2.0557059e-04  -2.9753926e-04  -2.7341547e-04   2.7220906e-04   1.1528750e-04   3.3504396e-05  -1.4425223e-04  -2.9662038e-04  -3.3984948e-04  -2.2055649e-04  -2.9560390e-04  -3.3575038e-04  -1.1831328e-05  -1.0068023e-04   5.5956023e-05  -2.5599470e-05  -1.3026471e-04  -7.7415185e-05  -1.4353679e-04   9.0235306e-05   2.0719079e-04   1.2000894e-04  -1.4981715e-04  -1.5742668e-04  -1.1603153e-04   8.7838101e-06   3.9390899e-04  -6.8620762e-05  -2.1329596e-04  -1.0488919e-05  -3.2736177e-05  -8.4988911e-05  -7.1320178e-05  -5.3381964e-05  -1.3835309e-05  -7.4463076e-05  -1.1851953e-04  -4.8711128e-05  -6.5516383e-05  -7.5294426e-05  -4.3899381e-05  -1.5974981e-04  -1.4864439e-04  -4.5301572e-05  -2.6177492e-05  -7.9070154e-06  -2.7365339e-05  -2.3055976e-05  -2.4976885e-05  -2.5350898e-05  -2.7594684e-05  -3.4026263e-05  -7.1525135e-05  -8.1814185e-05  -5.4134824e-05  -3.0648872e-05  -9.3207473e-05  -7.3643079e-05  -1.6759368e-04  -1.9547523e-04   6.1896211e-06  -1.5642977e-06  -2.0856209e-05  -4.2787531e-05  -5.2402251e-05  -1.6485110e-04  -1.5423031e-04  -5.4438087e-05  -4.9542312e-05  -9.6077369e-05  -1.4632131e-04  -7.8890120e-05  -1.4538228e-05   6.5483437e-05  -2.7771096e-05  -6.1851483e-05  -4.9193695e-05  -6.5858323e-05  -4.3978708e-05  -6.0935124e-05   7.6409690e-06   7.6414338e-05  -6.3343530e-05  -5.2243220e-05  -4.0810792e-05  -1.2349197e-05  -2.3769150e-05  -5.9669826e-05  -7.1676752e-05  -7.2666919e-05  -9.0719986e-05  -4.4990343e-05  -7.4747143e-05  -5.4685349e-05  -4.9831702e-05  -2.3221736e-05   3.9257345e-05  -7.1021026e-05  -6.0679136e-05  -6.9878321e-05  -5.2517519e-05  -8.3764499e-05  -3.7795590e-05  -6.7203916e-05  -7.1093004e-05   1.1917495e-05  -3.6161696e-05   3.7995039e-05   2.4194593e-05   6.2124507e-07  -2.2338435e-05   2.1480971e-05   9.4641064e-06   2.0673226e-05  -2.3227477e-05  -7.7121961e-05  -3.7828626e-05  -1.9658957e-05   3.4492887e-05   8.1974842e-06   9.9296900e-06  -6.5003084e-05  -6.9647210e-05  -6.2583940e-05  -5.8173983e-05  -5.1964306e-05   4.8343269e-07  -2.0371810e-05  -5.5624149e-05  -4.1919219e-05  -7.4233353e-05  -6.2623569e-05  -5.1173132e-05  -5.2340581e-05  -2.4101632e-05  -8.4623548e-05  -5.6200132e-05  -1.1907053e-04  -6.0990823e-05  -5.2068002e-05  -7.0583359e-05  -5.1245929e-05  -1.9486425e-05   2.8423282e-05  -9.1449478e-05  -1.8121061e-04  -1.7080175e-04  -1.5494247e-04  -4.7678027e-05  -7.7498758e-06   1.5260404e-04  -6.6579124e-05  -8.7252326e-05  -9.8061232e-05  -9.6601035e-05  -7.0431899e-05   1.9478952e-04   2.6901699e-04  -3.9734277e-05  -6.6201548e-05   4.1841511e-06  -3.5589336e-05  -3.5987052e-05  -7.5948456e-05  -6.4291198e-05  -5.8968226e-05  -1.5188841e-04  -7.5061642e-05  -6.5840417e-05  -8.0723846e-05  -1.1474028e-04  -1.4700602e-04   1.4667730e-04  -2.5772495e-04   2.8821972e-06   2.2363352e-05  -9.6737222e-06  -2.9316768e-05  -1.0482651e-04  -2.5885958e-05  -1.2939834e-04   8.6218665e-05   2.2325976e-05  -9.5175247e-05   2.7979757e-05  -3.0197688e-05  -5.0113554e-06   5.5849741e-04   7.3239483e-04  -5.3879401e-05  -9.7861713e-06  -1.9046949e-05   3.9225648e-05   1.2867424e-04   7.2552056e-04   4.2142343e-04   6.3718770e-05   1.5442793e-05  -5.5687442e-05  -2.7830585e-05   2.1208699e-05   1.5775514e-05   5.6221544e-06  -6.8932229e-06   2.9482337e-05  -1.6930629e-04  -1.0868022e-04  -4.7682331e-05  -1.8413588e-04   1.8767053e-04   9.0483202e-04   1.3072940e-03   1.3383992e-05  -5.7626165e-05  -2.8424302e-05   1.7103420e-04   7.0909504e-04   7.1951883e-04   1.0901970e-04   1.4458739e-04   6.6726826e-05   2.7424212e-04   4.3364592e-04   1.4356725e-04  -1.4942743e-05   2.6629944e-04   1.9275718e-04   1.3279535e-04   4.8278033e-05  -6.0900777e-05   3.4242915e-05   4.0225250e-04   2.4988275e-05   1.1323797e-04   1.0533676e-04   1.9084551e-05   2.4556561e-06  -1.2441444e-05   1.3711833e-04   1.3391680e-04   1.5204546e-04  -1.4433827e-07   2.4264263e-04   1.1281051e-04   5.2274562e-05  -1.1858644e-05   1.3425379e-04   1.6909334e-04   2.0299294e-04   4.4674958e-04   1.1568003e-04  -5.0602109e-05  -7.5510029e-05  -8.3629047e-06   1.8710049e-04  -9.3378705e-05  -3.1547084e-04  -3.6616205e-05  -6.4208015e-05  -1.1166740e-04  -7.4020050e-05   7.5273578e-06  -1.1856859e-05   5.6020554e-05  -7.2496989e-05  -1.2748953e-04  -3.3239817e-05  -3.1092879e-05  -4.7546307e-05  -1.6682334e-04   1.9695958e-05   7.4939301e-05  -5.1684342e-05  -5.4026561e-05   5.4735089e-06   3.9419983e-06  -1.1080872e-05  -7.2333268e-05  -4.9883905e-05  -1.6106344e-05  -7.8366898e-05  -6.0432133e-05  -4.6967793e-05  -4.1308222e-05  -6.3474844e-05   4.1102071e-06  -2.3772861e-05   3.7110246e-04  -3.5013644e-05  -3.3937438e-05  -2.7587346e-05  -2.6470881e-05   1.4885050e-04   2.3233301e-04   8.5940861e-05  -2.8755174e-04  -3.1414632e-04  -2.9037117e-04  -4.5572602e-04  -2.5177110e-04  -1.2707654e-04  -2.1155991e-04  -2.8314575e-04  -1.6943757e-04  -2.2091142e-04  -2.8611657e-04  -1.5290014e-04  -2.0310183e-04  -1.8980154e-04  -1.2797990e-04  -1.5525062e-04  -2.6322080e-04  -1.7817011e-04  -1.9820322e-04  -1.9395869e-04  -1.9655923e-04  -2.3842710e-04  -1.1065153e-04  -3.0169117e-04  -1.2474985e-04  -2.4019148e-04  -2.4460212e-04  -3.1759012e-04  -1.3801463e-04  -3.2327358e-04  -4.3288071e-04  -2.7027496e-04  -3.5585620e-04  -1.9246609e-04  -2.1405644e-04  -3.0132717e-04  -4.4836490e-04  -3.3302358e-04  -3.5069649e-05   3.3102411e-05   3.5502542e-05   9.7665162e-05   2.0367410e-05   4.7119774e-05   3.4315538e-05   5.7184084e-05  -8.1931006e-06  -4.0871364e-05  -2.1361129e-05   5.7955182e-05  -2.0946077e-04  -3.2719418e-04  -3.7541457e-04   1.9177790e-05   7.4822554e-05   1.5010956e-05   4.1378921e-05   1.5139029e-04   2.9593228e-04   1.5016450e-04   7.2380979e-05   1.0177737e-04   8.5287575e-05   2.0799135e-04   7.8857636e-05   1.9917873e-05   6.5630932e-06   2.1926310e-04   4.5953213e-04   3.1990625e-04   4.0232105e-04   7.5564978e-05   4.8509251e-05   1.5091725e-04   3.6536269e-04   2.7251847e-04
  -3.0610069e-05  -4.2395798e-05  -9.5861710e-05  -3.8494905e-05  -1.0363380e-04  -7.0515972e-05  -7.6202135e-06  -1.4378378e-05  -7.4693696e-05  -8.4442726e-05  -8.9619602e-05  -8.3559150e-05  -1.3871043e-05  -4.6785509e-05   1.7471908e-05  -8.5655194e-05  -2.5553094e-05  -1.3121027e-04  -1.0389232e-04  -1.0870608e-04  -8.8933586e-05  -8.6577780e-05  -3.5705403e-05  -4.1115586e-05  -1.0160162e-04  -6.6025579e-05  -3.8747244e-05  -6.4399865e-05   5.7482063e-05  -4.6111972e-05   1.8361297e-04  -6.5001675e-05  -7.7301680e-05  -5.6737952e-05  -5.4004333e-07   8.0265724e-05  -1.5341066e-04  -7.1052823e-05  -2.5464510e-04  -1.3660141e-04  -2.7146754e-04  -4.2565306e-04  -2.1535484e-04  -6.7885200e-05   2.3306457e-05   7.3314184e-05  -2.5500781e-04  -2.0374035e-04  -1.1888728e-04  -1.8188068e-04  -6.7032662e-05  -5.0039836e-05   5.2318535e-05  -3.0906986e-04  -2.2604816e-04   2.6692378e-05  -1.0861103e-04  -7.5817297e-05  -1.0755425e-04  -1.3511512e-04  -5.6186118e-05  -1.1301793e-04  -2.6816265e-05  -1.8608462e-05   1.2792309e-05  -1.9230097e-04   1.6978630e-05   1.6296043e-04   1.1776915e-04   5.3119531e-05   1.3262910e-04   9.3862109e-05   6.9378279e-05   3.0522309e-04   3.1608999e-04   2.8195956e-05  -1.7652269e-04  -2.7005234e-05  -1.2946737e-04  -1.4168961e-04  -2.1007276e-04  -2.0043971e-04  -3.3940402e-05   1.7536751e-04  -1.6440691e-04  -2.0288984e-04  -2.8674874e-04  -2.6687737e-04   2.8958166e-04   1.3190993e-04   5.4848087e-05  -1.4329982e-04  -2.9598400e-04  -3.3075554e-04  -2.0978153e-04  -2.9299946e-04  -3.3391255e-04   5.9776479e-07  -8.8453482e-05   6.5502625e-05  -1.5458065e-05  -1.0114066e-04  -6.7098750e-05  -1.3095564e-04   1.0803569e-04   2.2711988e-04   1.4264380e-04  -1.4319826e-04  -1.3977753e-04  -1.0128375e-04   2.1240119e-05   4.3122436e-04  -4.5732433e-05  -2.0132888e-04  -1.3256240e-05  -3.3659361e-05  -8.0570191e-05  -7.3929017e-05  -5.3009690e-05  -1.2608780e-05  -8.1132514e-05  -1.2436377e-04  -4.4860426e-05  -6.4247007e-05  -7.6680560e-05  -4.4183749e-05  -1.6174602e-04  -1.5186270e-04  -5.4067305e-05  -1.9622893e-05  -1.0420526e-05  -2.3781286e-05  -2.1406726e-05  -2.3115211e-05  -2.7582453e-05  -2.7081627e-05  -3.4600458e-05  -7.2863519e-05  -7.8533808e-05  -5.3441138e-05  -3.1632842e-05  -9.2946843e-05  -7.9484854e-05  -1.6797672e-04  -2.1195089e-04   7.4050565e-06   2.8469578e-07  -1.8949881e-05  -4.3624515e-05  -6.2213620e-05  -1.6524133e-04  -1.4945827e-04  -6.2076527e-05  -5.5989870e-05  -9.9759101e-05  -1.5649082e-04  -8.2828029e-05  -1.5316432e-05   6.6750678e-05  -2.3948264e-05  -6.4081197e-05  -4.9414661e-05  -6.8636412e-05  -4.6110711e-05  -6.8283748e-05   8.9630864e-06   7.6601942e-05  -6.1705578e-05  -5.4170513e-05  -3.8184295e-05  -1.0566679e-05  -2.3463867e-05  -6.3427521e-05  -7.2952065e-05  -7.6821143e-05  -9.5646785e-05  -4.1181391e-05  -7.4365080e-05  -6.1163807e-05  -5.1176555e-05  -3.1304108e-05   5.5250926e-05  -9.3655981e-05  -6.3261013e-05  -6.8241176e-05  -5.3058846e-05  -8.7464604e-05  -5.1821309e-05  -7.9641088e-05  -7.5628554e-05   1.9031958e-05  -3.0435551e-05   3.9312935e-05   2.8296315e-05   4.6987280e-06  -1.7222142e-05   2.9050168e-05   2.0313163e-05   2.4619155e-05  -1.9305560e-05  -7.1067440e-05  -3.2384366e-05  -2.3252457e-05   4.0917820e-05   1.2326639e-05   1.5089920e-05  -5.9812313e-05  -6.2181127e-05  -5.5519334e-05  -5.2124746e-05  -4.6461873e-05   3.3933142e-06  -1.8039615e-05  -5.1547614e-05  -3.9614733e-05  -6.8258025e-05  -6.0922439e-05  -4.7273167e-05  -4.7925926e-05  -1.9160985e-05  -7.8660313e-05  -5.1879022e-05  -1.1316811e-04  -5.7073998e-05  -4.7727955e-05  -6.6937026e-05  -4.3735720e-05  -1.4041860e-05   2.8015437e-05  -9.8961424e-05  -1.7152670e-04  -1.7124504e-04  -1.4995092e-04  -4.4794528e-05  -6.2373831e-06   1.6073501e-04  -5.8903959e-05  -7.9781613e-05  -9.4133977e-05  -9.1566073e-05  -6.5481200e-05   2.0121787e-04   2.7121539e-04  -2.8731448e-05  -6.2259488e-05   1.3317409e-05  -2.8486816e-05  -2.8777003e-05  -6.6038007e-05  -6.0764484e-05  -5.7120971e-05  -1.5758657e-04  -6.6519183e-05  -6.0685512e-05  -8.0928237e-05  -1.0946070e-04  -1.5804850e-04   1.6219003e-04  -2.6592120e-04   7.0145160e-06   2.7313824e-05  -5.8449142e-06  -3.2884433e-05  -1.2241866e-04  -2.0537784e-05  -1.2449919e-04   9.3710052e-05   2.4038653e-05  -8.4650127e-05   3.3378724e-05  -1.3429914e-05   8.3026706e-06   5.6311767e-04   7.3500967e-04  -4.6775718e-05   2.9962045e-06  -5.2534089e-06   5.8240987e-05   1.3680690e-04   7.2991731e-04   4.2459618e-04   8.1229245e-05   3.2920322e-05  -3.8946708e-05  -1.1380892e-05   3.9570331e-05   3.5226289e-05   1.2682694e-05   6.5035356e-07   2.5544088e-05  -1.6403807e-04  -9.2506206e-05  -4.0657847e-05  -1.7541866e-04   1.9161011e-04   9.3759147e-04   1.3103212e-03   2.8868414e-05  -4.0186315e-05  -2.1265730e-05   1.7691352e-04   7.4112979e-04   7.6598473e-04   1.2187094e-04   1.4591038e-04   7.5639153e-05   3.0155859e-04   4.4263428e-04   1.5723226e-04  -1.2850947e-05   2.6053036e-04   1.8459166e-04   1.3378955e-04   5.8310036e-05  -6.1236230e-05   2.9617392e-05   3.7144548e-04   2.8245772e-05   1.0616642e-04   1.1611015e-04   7.6792647e-06  -5.6288149e-07  -2.0293928e-05   1.2817526e-04   1.2459383e-04   1.6734975e-04  -3.2130533e-07   2.6954087e-04   1.2101350e-04   3.3560261e-05  -3.2283498e-05   1.1745559e-04   1.5645651e-04   1.8991690e-04   4.2484718e-04   1.1135088e-04  -6.1738772e-05  -8.8119802e-05  -2.1124005e-05   1.8106921e-04  -1.1814724e-04  -3.4397026e-04  -2.7115610e-05  -6.0984834e-05  -9.9531785e-05  -5.9269780e-05   1.4855727e-05  -9.5469004e-06   6.6460769e-05  -4.9826141e-05  -1.1973137e-04  -3.1253389e-05  -2.8652467e-05  -4.6227279e-05  -1.7131346e-04   3.7994265e-05   8.7457770e-05  -4.2318250e-05  -5.1337505e-05   6.6949220e-06   2.7216109e-06  -1.4078445e-05  -7.9336016e-05  -4.9540192e-05  -1.5582255e-05  -7.6271278e-05  -5.7268961e-05  -4.9254918e-05  -4.2500324e-05  -5.9184498e-05   9.0587158e-06   2.0053298e-05   3.9630698e-04  -3.8729855e-05  -4.1425021e-05  -2.6714721e-05  -2.0433644e-05   1.4702650e-04   2.5206325e-04   1.1116531e-04  -2.9939657e-04  -3.1811198e-04  -2.9374362e-04  -4.6733207e-04  -2.6503747e-04  -1.2861815e-04  -2.1681729e-04  -2.9127488e-04  -1.6569006e-04  -2.3249641e-04  -2.9616234e-04  -1.6031598e-04  -2.0987470e-04  -1.9609908e-04  -1.3502062e-04  -1.5976253e-04  -2.7663617e-04  -1.7995304e-04  -1.9278854e-04  -1.9444310e-04  -1.9508407e-04  -2.4537840e-04  -1.2254131e-04  -3.0217220e-04  -1.2663354e-04  -2.5401359e-04  -2.5097786e-04  -3.3007721e-04  -1.3772692e-04  -3.3266207e-04  -4.5125291e-04  -2.6760038e-04  -3.5753211e-04  -1.8962590e-04  -2.1357762e-04  -3.0165613e-04  -4.6834835e-04  -3.4858935e-04  -2.9200733e-06   5.4829846e-05   6.3914591e-05   1.6258843e-04   6.2382340e-05   5.5610788e-05   4.7353362e-05   7.1308111e-05   4.8595281e-06  -1.9370531e-05  -8.7970784e-06   7.6299151e-05  -2.0932891e-04  -3.2672914e-04  -3.5395190e-04   3.3416901e-05   7.2533096e-05   6.7435982e-06   4.3963494e-05   1.6095795e-04   3.0376300e-04   1.7218283e-04   7.8014502e-05   1.1662431e-04   1.1360251e-04   2.0744575e-04   7.2867246e-05   4.7791077e-05   2.4661950e-05   2.4154405e-04   4.9773189e-04   3.1452569e-04   3.7993315e-04   6.7374847e-05   5.7903982e-05   1.6521064e-04   4.0452800e-04   3.2855035e-04
  -3.2028177e-05  -4.6127127e-05  -1.0083097e-04  -4.5386094e-05  -1.0978509e-04  -7.4069900e-05  -5.4845617e-06  -9.5347731e-06  -7.7119299e-05  -9.0797643e-05  -9.9816999e-05  -8.9189035e-05  -1.0201095e-05  -3.8692536e-05   2.2014921e-05  -8.7588159e-05  -3.2227609e-05  -1.3561949e-04  -1.0869924e-04  -1.1232017e-04  -9.1611561e-05  -8.7794787e-05  -3.9169678e-05  -4.8204665e-05  -1.0740099e-04  -7.1356436e-05  -4.2814456e-05  -7.2856569e-05   5.1170164e-05  -4.2513963e-05   1.7632204e-04  -6.5347883e-05  -8.0881017e-05  -5.8210849e-05  -3.1050249e-06   7.7989682e-05  -1.5355088e-04  -7.3982705e-05  -2.5358009e-04  -1.2815761e-04  -2.8317268e-04  -4.3140398e-04  -2.1108533e-04  -7.0765470e-05   1.8880885e-05   8.3267703e-05  -2.6160807e-04  -2.1364877e-04  -1.2097427e-04  -1.8868427e-04  -6.3805400e-05  -4.8131587e-05   6.2039833e-05  -3.2129420e-04  -2.3232065e-04   3.0641949e-05  -1.0960850e-04  -7.6932445e-05  -1.0399346e-04  -1.2438100e-04  -5.1286711e-05  -9.8870338e-05  -2.9772453e-05  -1.1410571e-05   2.6479694e-05  -1.8938402e-04   3.0355091e-05   1.8578384e-04   1.2784269e-04   6.2162864e-05   1.4861666e-04   1.0344631e-04   8.3800310e-05   3.2293827e-04   3.1262441e-04   1.9629065e-05  -1.8892626e-04  -1.6117244e-05  -1.2463317e-04  -1.5332545e-04  -2.0954761e-04  -1.9294307e-04  -1.1050909e-05   2.1709832e-04  -1.6182605e-04  -1.9665175e-04  -2.7166282e-04  -2.5674238e-04   3.0652225e-04   1.4931120e-04   7.7939071e-05  -1.4022825e-04  -2.9399187e-04  -3.1717328e-04  -1.9560601e-04  -2.8712582e-04  -3.2843546e-04   1.6353364e-05  -7.4476695e-05   7.8913590e-05  -1.1154940e-06  -6.8557958e-05  -5.5049764e-05  -1.1334909e-04   1.2868550e-04   2.4611067e-04   1.7037134e-04  -1.3570272e-04  -1.2216503e-04  -8.3696566e-05   3.5264221e-05   4.6174739e-04  -2.0548790e-05  -1.8420605e-04  -1.5870511e-05  -3.4203523e-05  -7.4721787e-05  -7.5279435e-05  -5.1888019e-05  -1.1006038e-05  -8.8341132e-05  -1.3015835e-04  -3.9924528e-05  -6.2107096e-05  -7.6898901e-05  -4.3784798e-05  -1.6189895e-04  -1.5476731e-04  -6.3488260e-05  -1.2985997e-05  -1.2172551e-05  -1.9920272e-05  -1.9270025e-05  -2.0567145e-05  -2.9382434e-05  -2.6392564e-05  -3.5002770e-05  -7.3498145e-05  -7.3901061e-05  -5.2121296e-05  -3.1877621e-05  -9.0665355e-05  -8.5097850e-05  -1.6614211e-04  -2.2817518e-04   8.7517823e-06   2.2914926e-06  -1.6387317e-05  -4.3838579e-05  -7.2869355e-05  -1.6392183e-04  -1.4242773e-04  -7.0065962e-05  -6.2776794e-05  -1.0314281e-04  -1.6621290e-04  -8.6368732e-05  -1.6382879e-05   6.2168577e-05  -2.1895286e-05  -6.5433567e-05  -4.9378076e-05  -7.0983266e-05  -4.8209223e-05  -7.5262206e-05   8.5848489e-06   7.1742341e-05  -5.9774438e-05  -5.6351270e-05  -3.5381924e-05  -8.9780356e-06  -2.3436351e-05  -6.7322233e-05  -7.4759284e-05  -8.0291949e-05  -1.0012369e-04  -3.6586200e-05  -7.3698447e-05  -6.6899025e-05  -5.1219267e-05  -4.0438647e-05   6.8258614e-05  -1.2203342e-04  -6.5522309e-05  -6.5946901e-05  -5.2179800e-05  -8.9909199e-05  -7.0086470e-05  -9.1485432e-05  -7.8162380e-05   2.5927478e-05  -2.4295526e-05   4.0333841e-05   3.2121265e-05   8.8981089e-06  -1.1893983e-05   3.6139871e-05   3.1123207e-05   2.8290880e-05  -1.5291589e-05  -6.4346009e-05  -2.6528301e-05  -2.6433252e-05   4.6717257e-05   1.5968250e-05   1.9942920e-05  -5.4344290e-05  -5.4300974e-05  -4.7991586e-05  -4.5648235e-05  -4.0688632e-05   6.1721544e-06  -1.5256378e-05  -4.6902447e-05  -3.6654951e-05  -6.1793034e-05  -5.8413958e-05  -4.2504653e-05  -4.3001845e-05  -1.3939495e-05  -7.2243104e-05  -4.7384267e-05  -1.0650628e-04  -5.2557589e-05  -4.2684213e-05  -6.3114589e-05  -3.5305571e-05  -8.5434208e-06   2.5884175e-05  -1.0600184e-04  -1.6186637e-04  -1.7154255e-04  -1.4514057e-04  -4.2100538e-05  -6.2394120e-06   1.6644822e-04  -5.1344597e-05  -7.2524847e-05  -9.0117349e-05  -8.6425890e-05  -6.0425080e-05   2.0554438e-04   2.7147652e-04  -1.8162554e-05  -5.7784226e-05   2.2061204e-05  -2.1425595e-05  -2.2449014e-05  -5.7088755e-05  -5.7550314e-05  -5.4383176e-05  -1.6127135e-04  -5.6418838e-05  -5.5377402e-05  -7.9593538e-05  -1.0231591e-04  -1.6645575e-04   1.7564419e-04  -2.7225191e-04   1.0735615e-05   3.2648005e-05  -9.1173700e-07  -3.5087447e-05  -1.3992148e-04  -1.5447192e-05  -1.1570039e-04   9.9979090e-05   2.4796219e-05  -7.3177032e-05   3.8616645e-05   3.8146476e-06   2.1491532e-05   5.6487623e-04   7.3119374e-04  -4.0517369e-05   1.5376959e-05   8.0845023e-06   7.6307758e-05   1.4316251e-04   7.2833450e-04   4.2469937e-04   9.7413348e-05   4.8726068e-05  -2.2343433e-05   5.4810724e-06   5.7055817e-05   5.3321197e-05   1.8635901e-05   7.7653546e-06   2.1288127e-05  -1.5814977e-04  -7.6921250e-05  -3.3177557e-05  -1.6600747e-04   1.9632169e-04   9.6324358e-04   1.3102421e-03   4.3337852e-05  -2.3069012e-05  -1.4647479e-05   1.8176675e-04   7.7052808e-04   8.0604961e-04   1.3306996e-04   1.4533216e-04   8.2918618e-05   3.2280273e-04   4.4535940e-04   1.6654458e-04  -1.2528586e-05   2.4961832e-04   1.7283110e-04   1.3341440e-04   6.6226615e-05  -6.2622060e-05   2.2636776e-05   3.3664047e-04   3.0404029e-05   9.6752864e-05   1.2454897e-04  -2.6248519e-06  -5.6598300e-06  -2.9767122e-05   1.1600068e-04   1.1209631e-04   1.7858055e-04  -1.4215987e-06   2.9129338e-04   1.2651879e-04   1.3087268e-05  -5.3208443e-05   9.7398728e-05   1.4028870e-04   1.7397840e-04   3.9298862e-04   1.0364050e-04  -7.3381053e-05  -1.0012595e-04  -3.3876290e-05   1.7079426e-04  -1.4555134e-04  -3.7100494e-04  -1.6846430e-05  -5.6528314e-05  -8.6766761e-05  -4.3592904e-05   2.2573367e-05  -6.6194612e-06   7.2874037e-05  -2.6761924e-05  -1.0947427e-04  -2.8864264e-05  -2.5305432e-05  -4.4008573e-05  -1.7184124e-04   5.5639545e-05   9.7786758e-05  -3.2874937e-05  -4.7547863e-05   8.1207970e-06   2.6499211e-06  -1.6245155e-05  -8.4792848e-05  -4.9364853e-05  -1.4731849e-05  -7.3849962e-05  -5.2946150e-05  -5.1037406e-05  -4.2383471e-05  -5.2946275e-05   1.2983944e-05   6.5500256e-05   4.1708469e-04  -4.1617514e-05  -4.8079332e-05  -2.4954094e-05  -1.3545102e-05   1.4239188e-04   2.6917228e-04   1.3764699e-04  -3.0488838e-04  -3.1615338e-04  -2.9087247e-04  -4.6899707e-04  -2.7234311e-04  -1.2637391e-04  -2.2112425e-04  -2.9765596e-04  -1.5822991e-04  -2.3843883e-04  -2.9831795e-04  -1.6146720e-04  -2.1378538e-04  -2.0174479e-04  -1.4111360e-04  -1.6052780e-04  -2.8393605e-04  -1.7492340e-04  -1.8067474e-04  -1.8880417e-04  -1.8805422e-04  -2.4686616e-04  -1.2999626e-04  -2.9637981e-04  -1.2480800e-04  -2.6106282e-04  -2.5003036e-04  -3.3542501e-04  -1.3339802e-04  -3.4015157e-04  -4.6741098e-04  -2.5914485e-04  -3.5158608e-04  -1.8183987e-04  -2.0860223e-04  -2.9830058e-04  -4.8500295e-04  -3.6077879e-04   2.8312018e-05   7.4077075e-05   9.1061702e-05   2.2439057e-04   1.0131592e-04   6.2425115e-05   5.8322403e-05   8.5822694e-05   1.6338539e-05   9.3080962e-07   2.0409843e-06   9.2406550e-05  -2.0763149e-04  -3.2147246e-04  -3.2587005e-04   4.6574859e-05   7.0015954e-05  -4.2980121e-06   4.4555575e-05   1.6743187e-04   3.0763300e-04   1.9047553e-04   8.2151738e-05   1.2813668e-04   1.3808959e-04   2.0395296e-04   6.4475731e-05   7.3034401e-05   4.0634460e-05   2.6080287e-04   5.2817568e-04   3.0507235e-04   3.5397663e-04   5.7116809e-05   6.5089958e-05   1.7590473e-04   4.3906667e-04   3.7885300e-04
  -3.2549057e-05  -4.9140530e-05  -1.0393627e-04  -5.1134822e-05  -1.1404145e-04  -7.6519626e-05  -2.3268345e-06  -4.4257530e-06  -7.8684452e-05  -9.5791131e-05  -1.0862297e-04  -9.3329847e-05  -7.2853889e-06  -3.0044192e-05   2.6941213e-05  -8.7959690e-05  -3.8349406e-05  -1.3831933e-04  -1.1201478e-04  -1.1428484e-04  -9.2690277e-05  -8.7715456e-05  -4.1903379e-05  -5.4757155e-05  -1.1237088e-04  -7.5797892e-05  -4.6354190e-05  -8.0666298e-05   4.4672346e-05  -3.9375751e-05   1.6867050e-04  -6.4620004e-05  -8.3370206e-05  -5.9344727e-05  -5.8107775e-06   7.6036318e-05  -1.5199428e-04  -7.7035495e-05  -2.5085305e-04  -1.1880135e-04  -2.9427479e-04  -4.3617123e-04  -2.0636184e-04  -7.3749651e-05   1.2934850e-05   9.1257642e-05  -2.6707592e-04  -2.2353382e-04  -1.2357642e-04  -1.9549446e-04  -6.0329121e-05  -4.7083321e-05   7.0052334e-05  -3.3232113e-04  -2.3580571e-04   3.2694693e-05  -1.1034270e-04  -7.8511922e-05  -9.9406754e-05  -1.1387689e-04  -4.6393057e-05  -8.5178451e-05  -3.4683914e-05  -4.6191216e-06   3.9575698e-05  -1.8621155e-04   4.1674546e-05   2.0700400e-04   1.3320121e-04   7.0910752e-05   1.6508424e-04   1.1181132e-04   9.7368251e-05   3.3826964e-04   3.0542629e-04   9.1831616e-06  -2.0050058e-04  -9.6451671e-07  -1.1673832e-04  -1.6238070e-04  -2.0470158e-04  -1.8266455e-04   1.4043171e-05   2.5978368e-04  -1.5615021e-04  -1.8706163e-04  -2.5303501e-04  -2.4325048e-04   3.2286675e-04   1.6728513e-04   1.0230259e-04  -1.3509602e-04  -2.9083442e-04  -2.9978568e-04  -1.7856798e-04  -2.7819572e-04  -3.1970397e-04   3.5179504e-05  -5.9203812e-05   9.6032886e-05   1.7266252e-05  -3.3639346e-05  -4.1345804e-05  -9.1124311e-05   1.5189112e-04   2.6374411e-04   2.0273946e-04  -1.2760012e-04  -1.0527462e-04  -6.3669486e-05   5.0637898e-05   4.8465177e-04   6.0837433e-06  -1.6155088e-04  -1.8281850e-05  -3.4453578e-05  -6.7553268e-05  -7.5303396e-05  -4.9999611e-05  -9.0497326e-06  -9.6070437e-05  -1.3602384e-04  -3.4034195e-05  -5.9154035e-05  -7.5921231e-05  -4.2707554e-05  -1.6031098e-04  -1.5763995e-04  -7.3443540e-05  -6.5141418e-06  -1.3036223e-05  -1.5946429e-05  -1.6689065e-05  -1.7410279e-05  -3.0709970e-05  -2.5636659e-05  -3.5288669e-05  -7.3554905e-05  -6.8035454e-05  -5.0287106e-05  -3.1402183e-05  -8.6435524e-05  -9.0450450e-05  -1.6249522e-04  -2.4401072e-04   1.0181198e-05   4.4322415e-06  -1.3239402e-05  -4.3516888e-05  -8.4246956e-05  -1.6121733e-04  -1.3358695e-04  -7.8283431e-05  -6.9742157e-05  -1.0628558e-04  -1.7536892e-04  -8.9530176e-05  -1.7684114e-05   5.1804123e-05  -2.1884906e-05  -6.5899862e-05  -4.9090337e-05  -7.2720584e-05  -5.0189794e-05  -8.1566518e-05   6.5315567e-06   6.2097068e-05  -5.7820488e-05  -5.8759684e-05  -3.2475976e-05  -7.5973648e-06  -2.3675706e-05  -7.1176225e-05  -7.7165461e-05  -8.3012618e-05  -1.0412527e-04  -3.1540112e-05  -7.2858591e-05  -7.1602785e-05  -4.9982889e-05  -5.0372452e-05   7.7403308e-05  -1.5534987e-04  -6.7369803e-05  -6.3036759e-05  -4.9865879e-05  -9.1085025e-05  -9.1929639e-05  -1.0198357e-04  -7.8529085e-05   3.2288079e-05  -1.8038644e-05   4.1006214e-05   3.5437275e-05   1.3056346e-05  -6.5461701e-06   4.2404804e-05   4.1537235e-05   3.1585912e-05  -1.1384227e-05  -5.7282394e-05  -2.0506780e-05  -2.9056018e-05   5.1729288e-05   1.8964525e-05   2.4259988e-05  -4.8892477e-05  -4.6367827e-05  -4.0308042e-05  -3.9022623e-05  -3.4912990e-05   8.6918583e-06  -1.2194800e-05  -4.1992038e-05  -3.3158866e-05  -5.5221570e-05  -5.5270350e-05  -3.7081630e-05  -3.7897702e-05  -8.6093415e-06  -6.6017744e-05  -4.2985700e-05  -9.9507038e-05  -4.7673753e-05  -3.7190647e-05  -5.9454945e-05  -2.6248483e-05  -3.2093275e-06   2.2196226e-05  -1.1228011e-04  -1.5276890e-04  -1.7178373e-04  -1.4064794e-04  -3.9594702e-05  -7.6805646e-06   1.6970755e-04  -4.4170924e-05  -6.5740244e-05  -8.6076123e-05  -8.1250220e-05  -5.5756948e-05   2.0799523e-04   2.7031493e-04  -8.3503863e-06  -5.2904957e-05   3.0356968e-05  -1.4427848e-05  -1.7025472e-05  -4.9321612e-05  -5.4658082e-05  -5.0740135e-05  -1.6276546e-04  -4.4975624e-05  -5.0069355e-05  -7.6594068e-05  -9.3520128e-05  -1.7210139e-04   1.8681205e-04  -2.7694731e-04   1.4082075e-05   3.8325014e-05   5.0436322e-06  -3.5723116e-05  -1.5660861e-04  -1.0185120e-05  -1.0275704e-04   1.0469655e-04   2.4455292e-05  -6.1235351e-05   4.3420043e-05   2.1013886e-05   3.4105160e-05   5.6381100e-04   7.2134017e-04  -3.5325838e-05   2.7018883e-05   2.0609233e-05   9.2844404e-05   1.4761961e-04   7.2121294e-04   4.2170866e-04   1.1174565e-04   6.2158552e-05  -6.3740656e-06   2.2250729e-05   7.3186388e-05   6.9355527e-05   2.3406367e-05   1.4163151e-05   1.7087209e-05  -1.5177208e-04  -6.2726471e-05  -2.5705345e-05  -1.5641789e-04   2.0152643e-04   9.8177669e-04   1.3068962e-03   5.6150024e-05  -7.1122884e-06  -8.8873875e-06   1.8546808e-04   7.9616515e-04   8.3852860e-04   1.4186299e-04   1.4302726e-04   8.8409370e-05   3.3791832e-04   4.4258142e-04   1.7131330e-04  -1.4026985e-05   2.3411412e-04   1.5817527e-04   1.3209777e-04   7.1912449e-05  -6.5081238e-05   1.3564088e-05   3.0013161e-04   3.1372280e-05   8.5391319e-05   1.3082461e-04  -1.1295720e-05  -1.2646621e-05  -4.0517726e-05   1.0129802e-04   9.7004450e-05   1.8550744e-04  -3.5369488e-06   3.0762354e-04   1.2961775e-04  -8.3008310e-06  -7.3868168e-05   7.5203583e-05   1.2146071e-04   1.5615941e-04   3.5305745e-04   9.3013748e-05  -8.5030107e-05  -1.1104491e-04  -4.6096457e-05   1.5697388e-04  -1.7410163e-04  -3.9566645e-04  -6.3508519e-06  -5.1147955e-05  -7.4061752e-05  -2.7784564e-05   3.0333008e-05  -3.1931990e-06   7.5331161e-05  -4.2884801e-06  -9.7412071e-05  -2.6170485e-05  -2.1158888e-05  -4.1028461e-05  -1.6887284e-04   7.1977925e-05   1.0588351e-04  -2.3819710e-05  -4.2812683e-05   9.6858113e-06   3.7948973e-06  -1.7548343e-05  -8.8656068e-05  -4.9448550e-05  -1.3618349e-05  -7.1418148e-05  -4.7743472e-05  -5.2304085e-05  -4.1084175e-05  -4.5191032e-05   1.5868903e-05   1.1056702e-04   4.3351038e-04  -4.3687236e-05  -5.3775090e-05  -2.2545807e-05  -6.2596536e-06   1.3582293e-04   2.8337312e-04   1.6415767e-04  -3.0362933e-04  -3.0828684e-04  -2.8175115e-04  -4.6047082e-04  -2.7311538e-04  -1.2016642e-04  -2.2474800e-04  -3.0301485e-04  -1.4747375e-04  -2.3860170e-04  -2.9245655e-04  -1.5594404e-04  -2.1533708e-04  -2.0723310e-04  -1.4657085e-04  -1.5793508e-04  -2.8504323e-04  -1.6313755e-04  -1.6222765e-04  -1.7699294e-04  -1.7543677e-04  -2.4282364e-04  -1.3253650e-04  -2.8468065e-04  -1.1948229e-04  -2.6115025e-04  -2.4173705e-04  -3.3359665e-04  -1.2539331e-04  -3.4639681e-04  -4.8178853e-04  -2.4526741e-04  -3.3845682e-04  -1.6949533e-04  -1.9960278e-04  -2.9169607e-04  -4.9750590e-04  -3.6934009e-04   5.6643273e-05   8.9385399e-05   1.1533599e-04   2.7977427e-04   1.3500706e-04   6.6948068e-05   6.6595775e-05   1.0007056e-04   2.5385309e-05   1.8517541e-05   9.8271321e-06   1.0504169e-04  -2.0506554e-04  -3.1199055e-04  -2.9279277e-04   5.7861729e-05   6.6697207e-05  -1.8329357e-05   4.2630619e-05   1.7018055e-04   3.0682376e-04   2.0376092e-04   8.4175170e-05   1.3505610e-04   1.5771321e-04   1.9720536e-04   5.3401323e-05   9.4069835e-05   5.3501271e-05   2.7634063e-04   5.5000071e-04   2.9153025e-04   3.2487461e-04   4.4740434e-05   6.9384257e-05   1.8238333e-04   4.6782834e-04   4.2155081e-04
  -3.2209616e-05  -5.1373796e-05  -1.0517605e-04  -5.5639060e-05  -1.1638129e-04  -7.7824226e-05   1.9113302e-06   9.1971399e-07  -7.9415702e-05  -9.9315771e-05  -1.1583755e-04  -9.5894112e-05  -5.3555318e-06  -2.1129007e-05   3.2199181e-05  -8.6776791e-05  -4.3756409e-05  -1.3925954e-04  -1.1379267e-04  -1.1460710e-04  -9.2215657e-05  -8.6373969e-05  -4.3805996e-05  -6.0539022e-05  -1.1640553e-04  -7.9192308e-05  -4.9287587e-05  -8.7656193e-05   3.8291267e-05  -3.6730083e-05   1.6116154e-04  -6.2867301e-05  -8.4689763e-05  -6.0102505e-05  -8.5584584e-06   7.4541588e-05  -1.4895426e-04  -8.0169752e-05  -2.4736224e-04  -1.0933530e-04  -3.0500715e-04  -4.4114900e-04  -2.0206771e-04  -7.7108700e-05   5.2470558e-06   9.7139202e-05  -2.7165827e-04  -2.3353409e-04  -1.2729576e-04  -2.0277227e-04  -5.6536475e-05  -4.6908683e-05   7.5773291e-05  -3.4216618e-04  -2.3692614e-04   3.2499594e-05  -1.1122002e-04  -8.0950210e-05  -9.4559791e-05  -1.0452964e-04  -4.2030931e-05  -7.2888941e-05  -4.1301423e-05   1.1179055e-06   5.1259072e-05  -1.8332565e-04   5.0130142e-05   2.2643132e-04   1.3286223e-04   7.8805276e-05   1.8142500e-04   1.1879033e-04   1.0968198e-04   3.5033688e-04   2.9516818e-04  -2.4697453e-06  -2.1055033e-04   1.8383775e-05  -1.0590316e-04  -1.6819048e-04  -1.9556012e-04  -1.6988987e-04   4.0730248e-05   3.0263392e-04  -1.4755333e-04  -1.7443314e-04  -2.3172101e-04  -2.2670394e-04   3.3845396e-04   1.8559786e-04   1.2741405e-04  -1.2797574e-04  -2.8662313e-04  -2.7937067e-04  -1.5926885e-04  -2.6644138e-04  -3.0810204e-04   5.6715138e-05  -4.3085718e-05   1.1651653e-04   3.9324875e-05   2.4304201e-06  -2.6115988e-05  -6.4868655e-05   1.7723480e-04   2.7965520e-04   2.3903091e-04  -1.1909609e-04  -8.9629129e-05  -4.1694071e-05   6.7112907e-05   4.9958149e-04   3.3348947e-05  -1.3321440e-04  -2.0457799e-05  -3.4505014e-05  -5.9205934e-05  -7.3987979e-05  -4.7350782e-05  -6.7734850e-06  -1.0426868e-04  -1.4207371e-04  -2.7354611e-05  -5.5465301e-05  -7.3761241e-05  -4.0981784e-05  -1.5715254e-04  -1.6075680e-04  -8.3790591e-05  -4.2316166e-07  -1.2931854e-05  -1.2022584e-05  -1.3726009e-05  -1.3751116e-05  -3.1548148e-05  -2.4927190e-05  -3.5507391e-05  -7.3170925e-05  -6.1099231e-05  -4.8066179e-05  -3.0261391e-05  -8.0414789e-05  -9.5505661e-05  -1.5754995e-04  -2.5930130e-04   1.1633776e-05   6.6769417e-06  -9.6100881e-06  -4.2775048e-05  -9.6173645e-05  -1.5751328e-04  -1.2345544e-04  -8.6572022e-05  -7.6682923e-05  -1.0922799e-04  -1.8382260e-04  -9.2314745e-05  -1.9130987e-05   3.6133778e-05  -2.4052170e-05  -6.5507500e-05  -4.8544655e-05  -7.3654884e-05  -5.1932456e-05  -8.6930382e-05   2.9312743e-06   4.8254382e-05  -5.6098501e-05  -6.1321442e-05  -2.9505027e-05  -6.3940796e-06  -2.4121200e-05  -7.4750760e-05  -8.0155408e-05  -8.4923421e-05  -1.0762102e-04  -2.6374359e-05  -7.1920469e-05  -7.5011720e-05  -4.7533668e-05  -6.0773095e-05   8.2026001e-05  -1.9240623e-04  -6.8705223e-05  -5.9550939e-05  -4.6169408e-05  -9.1020657e-05  -1.1637867e-04  -1.1040712e-04  -7.6655755e-05   3.7824120e-05  -1.1960074e-05   4.1273252e-05   3.8026612e-05   1.7013385e-05  -1.3585621e-06   4.7526250e-05   5.1210656e-05   3.4418948e-05  -7.7623940e-06  -5.0190340e-05  -1.4560205e-05  -3.1025444e-05   5.5816155e-05   2.1187793e-05   2.7844916e-05  -4.3712762e-05  -3.8717787e-05  -3.2756483e-05  -3.2512841e-05  -2.9379904e-05   1.0837651e-05  -9.0384781e-06  -3.7123040e-05  -2.9263574e-05  -4.8905434e-05  -5.1690330e-05  -3.1243017e-05  -3.2944357e-05  -3.3391038e-06  -6.0603183e-05  -3.8928325e-05  -9.2572867e-05  -4.2663303e-05  -3.1517372e-05  -5.6257217e-05  -1.6864308e-05   1.7550488e-06   1.7216464e-05  -1.1753325e-04  -1.4467305e-04  -1.7198229e-04  -1.3651972e-04  -3.7239321e-05  -1.0390359e-05   1.7060096e-04  -3.7590199e-05  -5.9615815e-05  -8.2022046e-05  -7.6062511e-05  -5.1904905e-05   2.0887825e-04   2.6827068e-04   4.5752369e-07  -4.7740666e-05   3.8195360e-05  -7.4837776e-06  -1.2436966e-05  -4.2836997e-05  -5.2051617e-05  -4.6208577e-05  -1.6198811e-04  -3.2464482e-05  -4.4879733e-05  -7.1868308e-05  -8.3341100e-05  -1.7498940e-04   1.9561384e-04  -2.8021365e-04   1.7126660e-05   4.4279994e-05   1.1871350e-05  -3.4672403e-05  -1.7172555e-04  -4.2633091e-06  -8.5582178e-05   1.0761326e-04   2.2924739e-05  -4.9304596e-05   4.7555934e-05   3.7678158e-05   4.5730321e-05   5.5994407e-04   7.0593580e-04  -3.1325543e-05   3.7649824e-05   3.2055913e-05   1.0737177e-04   1.5013252e-04   7.0905651e-04   4.1561795e-04   1.2380653e-04   7.2711151e-05   8.5114363e-06   3.8420088e-05   8.7567553e-05   8.2759179e-05   2.6981385e-05   1.9601012e-05   1.3283279e-05  -1.4501514e-04  -5.0611079e-05  -1.8699423e-05  -1.4711622e-04   2.0686569e-04   9.9331409e-04   1.2998972e-03   6.6760983e-05   6.9257481e-06  -4.2663977e-06   1.8788985e-04   8.1693636e-04   8.6246128e-04   1.4758066e-04   1.3926493e-04   9.2092926e-05   3.4728009e-04   4.3539438e-04   1.7164957e-04  -1.7247997e-05   2.1485902e-04   1.4145954e-04   1.3031704e-04   7.5444503e-05  -6.8488422e-05   2.8243781e-06   2.6414506e-04   3.1171557e-05   7.2646753e-05   1.3529513e-04  -1.7884085e-05  -2.1186875e-05  -5.2079926e-05   8.4924832e-05   8.0054262e-05   1.8816889e-04  -6.6929863e-06   3.1861468e-04   1.3078030e-04  -2.9706310e-05  -9.3503940e-05   5.2108162e-05   1.0100881e-04   1.3750392e-04   3.0744555e-04   8.0128451e-05  -9.6133143e-05  -1.2044918e-04  -5.7299530e-05   1.4063051e-04  -2.0210181e-04  -4.1709439e-04   3.7842156e-06  -4.5215301e-05  -6.2079500e-05  -1.2704083e-05   3.7748504e-05   5.8880791e-07   7.4111870e-05   1.6646499e-05  -8.4335338e-05  -2.3291318e-05  -1.6365379e-05  -3.7470607e-05  -1.6309012e-04   8.6392856e-05   1.1179102e-04  -1.5585917e-05  -3.7323634e-05   1.1337127e-05   6.1489146e-06  -1.8011235e-05  -9.0961109e-05  -4.9874796e-05  -1.2320682e-05  -6.9298700e-05  -4.1976450e-05  -5.3052032e-05  -3.8798626e-05  -3.6437060e-05   1.7770743e-05   1.5324238e-04   4.4581271e-04  -4.4978925e-05  -5.8397257e-05  -1.9736665e-05   9.7428744e-07   1.2828859e-04   2.9456400e-04   1.8946064e-04  -2.9554440e-04  -2.9480877e-04  -2.6667867e-04  -4.4199390e-04  -2.6712128e-04  -1.1002308e-04  -2.2799665e-04  -3.0824280e-04  -1.3405124e-04  -2.3316216e-04  -2.7885319e-04  -1.4370059e-04  -2.1524808e-04  -2.1314927e-04  -1.5180554e-04  -1.5258513e-04  -2.8018515e-04  -1.4500525e-04  -1.3815937e-04  -1.5925092e-04  -1.5746699e-04  -2.3345145e-04  -1.2995001e-04  -2.6775235e-04  -1.1109163e-04  -2.5441114e-04  -2.2644735e-04  -3.2492871e-04  -1.1433844e-04  -3.5218841e-04  -4.9496485e-04  -2.2655740e-04  -3.1888711e-04  -1.5322941e-04  -1.8729238e-04  -2.8245910e-04  -5.0520683e-04  -3.7422249e-04   8.0207801e-05   9.9472816e-05   1.3524515e-04   3.2574304e-04   1.6157644e-04   6.8637364e-05   7.1778836e-05   1.1342546e-04   3.1280170e-05   3.2011998e-05   1.3362418e-05   1.1310415e-04  -2.0231662e-04  -2.9897506e-04  -2.5653608e-04   6.6577669e-05   6.1901521e-05  -3.5473854e-05   3.7750656e-05   1.6869673e-04   3.0069265e-04   2.1095232e-04   8.3495386e-05   1.3627600e-04   1.7177226e-04   1.8696923e-04   3.9396058e-05   1.0956413e-04   6.2497308e-05   2.8769731e-04   5.6287922e-04   2.7392915e-04   2.9291738e-04   3.0234576e-05   7.0244530e-05   1.8427968e-04   4.9000456e-04   4.5526350e-04
  -3.1093768e-05  -5.2791151e-05  -1.0462655e-04  -5.8858495e-05  -1.1686111e-04  -7.7981507e-05   7.2148664e-06   6.4687145e-06  -7.9353605e-05  -1.0131363e-04  -1.2131705e-04  -9.6853432e-05  -4.5550113e-06  -1.2227558e-05   3.7708821e-05  -8.4113400e-05  -4.8318696e-05  -1.3843763e-04  -1.1403179e-04  -1.1334373e-04  -9.0292554e-05  -8.3846605e-05  -4.4813330e-05  -6.5338594e-05  -1.1940279e-04  -8.1419108e-05  -5.1549885e-05  -9.3663711e-05   3.2293169e-05  -3.4541105e-05   1.5416766e-04  -6.0172715e-05  -8.4792890e-05  -6.0434360e-05  -1.1231858e-05   7.3557602e-05  -1.4465989e-04  -8.3291271e-05  -2.4404820e-04  -1.0055443e-04  -3.1556092e-04  -4.4744786e-04  -1.9902126e-04  -8.1114318e-05  -4.3434795e-06   1.0093702e-04  -2.7558731e-04  -2.4373673e-04  -1.3270857e-04  -2.1094920e-04  -5.2281637e-05  -4.7494817e-05   7.8758251e-05  -3.5081973e-04  -2.3627246e-04   2.9802096e-05  -1.1264827e-04  -8.4610810e-05  -9.0287584e-05  -9.7194834e-05  -3.8711371e-05  -6.2846855e-05  -4.9200910e-05   5.1806006e-06   6.0767983e-05  -1.8117539e-04   5.5103813e-05   2.4402709e-04   1.2620151e-04   8.5270780e-05   1.9694758e-04   1.2429897e-04   1.2043385e-04   3.5835403e-04   2.8269549e-04  -1.4491567e-05  -2.1832568e-04   4.1671016e-05  -9.2319751e-05  -1.7014381e-04  -1.8227856e-04  -1.5494373e-04   6.8365994e-05   3.4488011e-04  -1.3627183e-04  -1.5914326e-04  -2.0861691e-04  -2.0744444e-04   3.5315849e-04   2.0399804e-04   1.5272438e-04  -1.1893939e-04  -2.8140730e-04  -2.5674560e-04  -1.3833166e-04  -2.5212519e-04  -2.9400562e-04   8.0510095e-05  -2.6535527e-05   1.3984601e-04   6.4517122e-05   3.8450493e-05  -9.5247524e-06  -3.5312813e-05   2.0417570e-04   2.9358049e-04   2.7830030e-04  -1.1031019e-04  -7.5571615e-05  -1.8316769e-05   8.4404999e-05   5.0668362e-04   6.0527471e-05  -9.9299331e-05  -2.2391639e-05  -3.4460795e-05  -4.9852358e-05  -7.1383969e-05  -4.3979545e-05  -4.2252788e-06  -1.1285173e-04  -1.4840790e-04  -2.0081701e-05  -5.1139149e-05  -7.0482263e-05  -3.8662694e-05  -1.5265330e-04  -1.6437154e-04  -9.4368492e-05   5.1087082e-06  -1.1838590e-05  -8.3058780e-06  -1.0462823e-05  -9.7234210e-06  -3.1908359e-05  -2.4376724e-05  -3.5702140e-05  -7.2486970e-05  -5.3293068e-05  -4.5597542e-05  -2.8542520e-05  -7.2838789e-05  -1.0022398e-04  -1.5190058e-04  -2.7387674e-04   1.3036982e-05   8.9842651e-06  -5.6320559e-06  -4.1747987e-05  -1.0843563e-04  -1.5323204e-04  -1.1259265e-04  -9.4743583e-05  -8.3368554e-05  -1.1198252e-04  -1.9142049e-04  -9.4692450e-05  -2.0599067e-05   1.6011361e-05  -2.8387761e-05  -6.4314192e-05  -4.7723116e-05  -7.3594745e-05  -5.3284047e-05  -9.1150707e-05  -1.9974031e-06   3.1081080e-05  -5.4823527e-05  -6.3917753e-05  -2.6473751e-05  -5.2929357e-06  -2.4666693e-05  -7.7762293e-05  -8.3630458e-05  -8.5972038e-05  -1.1057281e-04  -2.1383376e-05  -7.0910368e-05  -7.6905205e-05  -4.3968072e-05  -7.1235289e-05   8.1736016e-05  -2.3167128e-04  -6.9434579e-05  -5.5535778e-05  -4.1206837e-05  -8.9782683e-05  -1.4221673e-04  -1.1609787e-04  -7.2552492e-05   4.2289550e-05  -6.3345355e-06   4.1080170e-05   3.9702739e-05   2.0621405e-05   3.5095154e-06   5.1238534e-05   5.9819846e-05   3.6722017e-05  -4.5764426e-06  -4.3360699e-05  -8.9134783e-06  -3.2306796e-05   5.8866419e-05   2.2551794e-05   3.0544589e-05  -3.9013132e-05  -3.1646387e-05  -2.5593913e-05  -2.6359635e-05  -2.4303182e-05   1.2516711e-05  -5.9711897e-06  -3.2585548e-05  -2.5118397e-05  -4.3162858e-05  -4.7886130e-05  -2.5239300e-05  -2.8448511e-05   1.7174612e-06  -5.6533493e-05  -3.5418663e-05  -8.6067954e-05  -3.7767040e-05  -2.5938684e-05  -5.3749261e-05  -7.4429476e-06   6.1667908e-06   1.1292826e-05  -1.2154182e-04  -1.3789340e-04  -1.7207485e-04  -1.3272794e-04  -3.4976096e-05  -1.4111536e-05   1.6933172e-04  -3.1739510e-05  -5.4261259e-05  -7.7913874e-05  -7.0848196e-05  -4.9190993e-05   2.0855546e-04   2.6586899e-04   8.0969068e-06  -4.2388049e-05   4.5600224e-05  -5.6062748e-07  -8.5280766e-06  -3.7618069e-05  -4.9656935e-05  -4.0832138e-05  -1.5896427e-04  -1.9214233e-05  -3.9883362e-05  -6.5425039e-05  -7.2090699e-05  -1.7524316e-04   2.0212867e-04  -2.8218187e-04   1.9966706e-05   5.0423258e-05   1.9355686e-05  -3.1898252e-05  -1.8452187e-04   2.8235319e-06  -6.4263873e-05   1.0857993e-04   2.0159435e-05  -3.7844989e-05   5.0860397e-05   5.3363752e-05   5.6008807e-05   5.5330551e-04   6.8552920e-04  -2.8545557e-05   4.7069685e-05   4.2254865e-05   1.1953170e-04   1.5071465e-04   6.9240757e-04   4.0645775e-04   1.3329929e-04   8.0115167e-05   2.1915271e-05   5.3492944e-05   9.9895187e-05   9.3118957e-05   2.9400010e-05   2.3896435e-05   1.0153803e-05  -1.3798555e-04  -4.1106504e-05  -1.2588590e-05  -1.3849853e-04   2.1192897e-04   9.9808181e-04   1.2887420e-03   7.4756130e-05   1.8425405e-05  -1.0105696e-06   1.8891725e-04   8.3184334e-04   8.7717076e-04   1.4967915e-04   1.3440977e-04   9.4082244e-05   3.5164946e-04   4.2515762e-04   1.6795027e-04  -2.1942777e-05   1.9294160e-04   1.2358560e-04   1.2855763e-04   7.7082543e-05  -7.2558857e-05  -9.0142610e-06   2.3069271e-04   2.9946725e-05   5.9233436e-05   1.3847425e-04  -2.2021449e-05  -3.0804541e-05  -6.3876598e-05   6.7862439e-05   6.2089959e-05   1.8686577e-04  -1.0840271e-05   3.2470100e-04   1.3059979e-04  -5.0223303e-05  -1.1140041e-04   2.9385728e-05   8.0068353e-05   1.1904738e-04   2.5888981e-04   6.5792691e-05  -1.0611049e-04  -1.2799237e-04  -6.7056558e-05   1.2305760e-04  -2.2777323e-04  -4.3453989e-04   1.2960217e-05  -3.9126844e-05  -5.1421646e-05   7.6225444e-07   4.4409041e-05   4.5678242e-06   6.9670164e-05   3.5170677e-05  -7.1085852e-05  -2.0365704e-05  -1.1111586e-05  -3.3556604e-05  -1.5534199e-04   9.8334401e-05   1.1562849e-04  -8.5586355e-06  -3.1309606e-05   1.3031139e-05   9.6319290e-06  -1.7714579e-05  -9.1816312e-05  -5.0726915e-05  -1.0927178e-05  -6.7803969e-05  -3.5974154e-05  -5.3283921e-05  -3.5771185e-05  -2.7252150e-05   1.8810374e-05   1.9163725e-04   4.5434025e-04  -4.5551615e-05  -6.1837564e-05  -1.6755719e-05   7.7501820e-06   1.2077913e-04   3.0283351e-04   2.1240369e-04  -2.8087076e-04  -2.7628258e-04  -2.4624423e-04  -4.1428414e-04  -2.5447854e-04  -9.6169106e-05  -2.3119091e-04  -3.1431054e-04  -1.1875308e-04  -2.2258509e-04  -2.5816496e-04  -1.2502954e-04  -2.1440485e-04  -2.2012051e-04  -1.5728674e-04  -1.4523419e-04  -2.6985834e-04  -1.2124581e-04  -1.0946797e-04  -1.3610508e-04  -1.3462051e-04  -2.1920903e-04  -1.2229935e-04  -2.4651572e-04  -1.0025849e-04  -2.4127752e-04  -2.0484710e-04  -3.1009827e-04  -1.0106746e-04  -3.5840715e-04  -5.0762196e-04  -2.0378284e-04  -2.9387255e-04  -1.3386581e-04  -1.7258982e-04  -2.7134644e-04  -5.0770633e-04  -3.7559759e-04   9.7399251e-05   1.0331878e-04   1.4953242e-04   3.5980247e-04   1.7954786e-04   6.7081006e-05   7.3752949e-05   1.2534123e-04   3.3499899e-05   4.0281517e-05   1.1669754e-05   1.1571089e-04  -1.9999062e-04  -2.8317102e-04  -2.1899540e-04   7.2175627e-05   5.4929228e-05  -5.5729086e-05   2.9599663e-05   1.6266197e-04   2.8875253e-04   2.1124690e-04   7.9605122e-05   1.3093516e-04   1.7994374e-04   1.7312631e-04   2.2284534e-05   1.1852255e-04   6.7124359e-05   2.9470374e-04   5.6703882e-04   2.5235379e-04   2.5828126e-04   1.3648201e-05   6.7308383e-05   1.8151893e-04   5.0520004e-04   4.7917390e-04
  -2.9324963e-05  -5.3385843e-05  -1.0243030e-04  -6.0808380e-05  -1.1560550e-04  -7.7027032e-05   1.3488289e-05   1.2178077e-05  -7.8546375e-05  -1.0178009e-04  -1.2497287e-04  -9.6236775e-05  -4.9311211e-06  -3.6037026e-06   4.3359878e-05  -8.0105282e-05  -5.1943153e-05  -1.3589756e-04  -1.1277237e-04  -1.1059444e-04  -8.7070847e-05  -8.0247415e-05  -4.4900783e-05  -6.8976811e-05  -1.2126921e-04  -8.2399985e-05  -5.3089400e-05  -9.8541156e-05   2.6888760e-05  -3.2717147e-05   1.4789803e-04  -5.6647835e-05  -8.3670468e-05  -6.0281865e-05  -1.3710107e-05   7.3047413e-05  -1.3934398e-04  -8.6257269e-05  -2.4183981e-04  -9.3195315e-05  -3.2605756e-04  -4.5601503e-04  -1.9792037e-04  -8.6015388e-05  -1.5906824e-05   1.0285012e-04  -2.7904882e-04  -2.5417068e-04  -1.4032972e-04  -2.2039691e-04  -4.7353725e-05  -4.8602660e-05   7.8735873e-05  -3.5824400e-04  -2.3456602e-04   2.4454166e-05  -1.1501116e-04  -8.9805325e-05  -8.7443869e-05  -9.2604571e-05  -3.6900410e-05  -5.5747438e-05  -5.7806884e-05   7.0128814e-06   6.7443920e-05  -1.8009315e-04   5.6218954e-05   2.5989381e-04   1.1303995e-04   8.9745222e-05   2.1090890e-04   1.2832922e-04   1.2941958e-04   3.6170272e-04   2.6897601e-04  -2.5936475e-05  -2.2309314e-04   6.8482945e-05  -7.6248252e-05  -1.6769544e-04  -1.6511700e-04  -1.3818547e-04   9.6288864e-05   3.8580732e-04  -1.2257496e-04  -1.4163118e-04  -1.8459712e-04  -1.8584686e-04   3.6689445e-04   2.2224466e-04   1.7768235e-04  -1.0806086e-04  -2.7516310e-04  -2.3273327e-04  -1.1637350e-04  -2.3550713e-04  -2.7775787e-04   1.0607195e-04  -9.9279496e-06   1.6537058e-04   9.2157946e-05   7.3279229e-05   8.1887847e-06  -3.2887765e-06   2.3211505e-04   3.0536818e-04   3.1945391e-04  -1.0129194e-04  -6.3271259e-05   5.8598125e-06   1.0222719e-04   5.0660388e-04   8.7046598e-05  -6.0221014e-05  -2.4100849e-05  -3.4425637e-05  -3.9699094e-05  -6.7609279e-05  -3.9963377e-05  -1.4663020e-06  -1.2170991e-04  -1.5510749e-04  -1.2436725e-05  -4.6296006e-05  -6.6197153e-05  -3.5837182e-05  -1.4709840e-04  -1.6869796e-04  -1.0500740e-04   9.9452394e-06  -9.7944979e-06  -4.9433303e-06  -7.0026106e-06  -5.4846297e-06  -3.1834521e-05  -2.4096445e-05  -3.5909583e-05  -7.1639879e-05  -4.4853667e-05  -4.3029199e-05  -2.6360636e-05  -6.4012422e-05  -1.0456135e-04  -1.4618534e-04  -2.8756850e-04   1.4310375e-05   1.1300597e-05  -1.4617842e-06  -4.0583544e-05  -1.2078991e-04  -1.4881115e-04  -1.0156740e-04  -1.0257325e-04  -8.9545823e-05  -1.1452638e-04  -1.9798243e-04  -9.6599480e-05  -2.1939502e-05  -7.3901876e-06  -3.4732159e-05  -6.2401702e-05  -4.6598530e-05  -7.2369784e-05  -5.4070428e-05  -9.4100519e-05  -7.9605805e-06   1.1650030e-05  -5.4153619e-05  -6.6395931e-05  -2.3354762e-05  -4.1856452e-06  -2.5172730e-05  -7.9900697e-05  -8.7409267e-05  -8.6111787e-05  -1.1292860e-04  -1.6800430e-05  -6.9806405e-05  -7.7115451e-05  -3.9403062e-05  -8.1303328e-05   7.6438726e-05  -2.7137631e-04  -6.9477921e-05  -5.1046020e-05  -3.5152296e-05  -8.7465126e-05  -1.6806656e-04  -1.1850698e-04  -6.6305224e-05   4.5496090e-05  -1.4019734e-06   4.0373930e-05   4.0321500e-05   2.3755811e-05   7.9267861e-06   5.3354017e-05   6.7082137e-05   3.8444528e-05  -1.9397085e-06  -3.7043193e-05  -3.7624219e-06  -3.2936552e-05   6.0800341e-05   2.3021772e-05   3.2259849e-05  -3.4944681e-05  -2.5393778e-05  -1.9033746e-05  -2.0769571e-05  -1.9855789e-05   1.3662548e-05  -3.1633218e-06  -2.8635785e-05  -2.0875623e-05  -3.8250692e-05  -4.4073539e-05  -1.9319786e-05  -2.4670192e-05   6.4242378e-06  -5.4212051e-05  -3.2615503e-05  -8.0298047e-05  -3.3212389e-05  -2.0715422e-05  -5.2064972e-05   1.7510781e-06   9.8750913e-06   4.8326649e-06  -1.2414743e-04  -1.3260436e-04  -1.7191741e-04  -1.2917745e-04  -3.2728708e-05  -1.8525124e-05   1.6621149e-04  -2.6676977e-05  -4.9715455e-05  -7.3671581e-05  -6.5566406e-05  -4.7795476e-05   2.0742011e-04   2.6358430e-04   1.4496875e-05  -3.6921338e-05   5.2619185e-05   6.3853044e-06  -5.0894108e-06  -3.3544615e-05  -4.7371470e-05  -3.4689363e-05  -1.5382278e-04  -5.5912856e-06  -3.5112248e-05  -5.7347702e-05  -6.0099088e-05  -1.7308228e-04   2.0659696e-04  -2.8286866e-04   2.2715996e-05   5.6643410e-05   2.7226967e-05  -2.7451445e-05  -1.9428261e-04   1.1561404e-05  -3.9064911e-05   1.0755579e-04   1.6175588e-05  -2.7275694e-05   5.3249275e-05   6.7686032e-05   6.4653981e-05   5.4394266e-04   6.6071643e-04  -2.6936452e-05   5.5146135e-05   5.1129860e-05   1.2909294e-04   1.4942854e-04   6.7181122e-04   3.9430272e-04   1.4005688e-04   8.4341775e-05   3.3505767e-05   6.7006020e-05   1.0996037e-04   1.0020043e-04   3.0733909e-05   2.6932318e-05   7.8921491e-06  -1.3079512e-04  -3.4560238e-05  -7.7371803e-06  -1.3086851e-04   2.1631188e-04   9.9638304e-04   1.2729149e-03   7.9873515e-05   2.6932503e-05   7.1388943e-07   1.8845229e-04   8.4008886e-04   8.8230684e-04   1.4778240e-04   1.2891042e-04   9.4617478e-05   3.5210593e-04   4.1340162e-04   1.6087610e-04  -2.7729506e-05   1.6964109e-04   1.0548566e-04   1.2727946e-04   7.7253769e-05  -7.6877010e-05  -2.1262368e-05   2.0145414e-04   2.7956386e-05   4.5987748e-05   1.4097942e-04  -2.3447926e-05  -4.0923180e-05  -7.5261338e-05   5.1144149e-05   4.4031142e-05   1.8214648e-04  -1.5846843e-05   3.2661775e-04   1.2972936e-04  -6.8985868e-05  -1.2691145e-04   8.2600009e-06   5.9802518e-05   1.0176277e-04   2.1028869e-04   5.0915084e-05  -1.1439136e-04  -1.3343475e-04  -7.5023619e-05   1.0574251e-04  -2.4939060e-04  -4.4741315e-04   2.0595307e-05  -3.3294716e-05  -4.2603276e-05   1.1753389e-05   4.9911537e-05   8.5755311e-06   6.2590129e-05   5.0538754e-05  -5.8507243e-05  -1.7556896e-05  -5.6209945e-06  -2.9538294e-05  -1.4658388e-04   1.0735028e-04   1.1757247e-04  -3.0627438e-06  -2.5039240e-05   1.4735591e-05   1.4085084e-05  -1.6790429e-05  -9.1404793e-05  -5.2079978e-05  -9.5315126e-06  -6.7216195e-05  -3.0056449e-05  -5.3012006e-05  -3.2276466e-05  -1.8219242e-05   1.9159360e-05   2.2410600e-04   4.5953836e-04  -4.5477101e-05  -6.3999591e-05  -1.3794392e-05   1.3737068e-05   1.1423498e-04   3.0845944e-04   2.3200968e-04  -2.6014456e-04  -2.5350904e-04  -2.2130129e-04  -3.7847863e-04  -2.3564554e-04  -7.9020867e-05  -2.3465095e-04  -3.2219133e-04  -1.0249629e-04  -2.0757261e-04  -2.3136278e-04  -1.0056531e-04  -2.1377138e-04  -2.2878964e-04  -1.6350728e-04  -1.3673243e-04  -2.5478433e-04  -9.2836982e-05  -7.7358933e-05  -1.0832045e-04  -1.0756938e-04  -2.0076284e-04  -1.0990120e-04  -2.2208544e-04  -8.7746283e-05  -2.2242277e-04  -1.7790353e-04  -2.9006125e-04  -8.6548052e-05  -3.6594751e-04  -5.2050215e-04  -1.7784332e-04  -2.6457599e-04  -1.1237540e-04  -1.5654378e-04  -2.5923290e-04  -5.0490904e-04  -3.7386486e-04   1.0697773e-04   1.0025695e-04   1.5725524e-04   3.8013743e-04   1.8795125e-04   6.2032668e-05   7.2696934e-05   1.3541258e-04   3.1759597e-05   4.2535492e-05   4.0938812e-06   1.1227777e-04  -1.9855962e-04  -2.6532256e-04  -1.8200774e-04   7.4294778e-05   4.5129319e-05  -7.8942213e-05   1.8026568e-05   1.5197004e-04   2.7073609e-04   2.0418143e-04   7.2113782e-05   1.1849462e-04   1.8229653e-04   1.5570709e-04   2.0116568e-06   1.2035698e-04   6.7193495e-05   2.9749003e-04   5.6325892e-04   2.2697879e-04   2.2106901e-04  -4.8990153e-06   6.0427786e-05   1.7432915e-04   5.1345513e-04   4.9307007e-04
