   1.8279961e-05   2.2994263e-05  -2.6489922e-05  -2.8432579e-05   0.0000000e+00  -9.8174702e-06  -5.1788378e-06  -4.6758785e-05  -2.8428576e-05  -1.1797342e-05   3.9420666e-06  -1.0886486e-06   1.7374014e-07   3.9729176e-06  -9.0747853e-06  -2.5129504e-05  -5.2986706e-06   0.0000000e+00   0.0000000e+00   0.0000000e+00  -4.3481282e-07   0.0000000e+00   1.1426430e-06   8.0899721e-06  -7.5459530e-06  -6.7933512e-06  -9.2980229e-06  -2.4531680e-06   1.1773066e-05  -3.9111435e-06  -1.2311212e-05   5.5157173e-07   0.0000000e+00   9.8191956e-06  -1.1242835e-05  -3.2826138e-05  -1.7722838e-05   1.8270943e-05   1.1730109e-04   8.6515074e-05   1.2893948e-04   1.2251568e-04   0.0000000e+00   6.7109713e-05   1.7258638e-04   1.4562684e-04   6.9420815e-06   1.5146342e-04   1.4722613e-04   1.2461021e-04   8.4397794e-05   9.5413618e-05  -1.5119973e-04  -6.1968802e-05   2.5082812e-05   0.0000000e+00   0.0000000e+00   0.0000000e+00   8.8247864e-05   0.0000000e+00   6.2980433e-05   1.0851492e-04   9.0175109e-05   8.2591655e-05   3.2649126e-05   9.8333144e-05   9.1303885e-05  -1.8250170e-04  -7.7250913e-05   1.4848810e-05   0.0000000e+00   6.1499024e-05   1.2978497e-05   3.3678475e-06  -3.1213781e-05   2.0510536e-04   5.6400620e-04   4.9787313e-04   1.5993484e-04   3.4489300e-04   0.0000000e+00   1.0556453e-04   6.8102035e-04   5.7730277e-04   1.8339150e-04  -1.1743395e-04  -1.3468807e-04  -5.4236754e-05   2.7516133e-04   5.3770187e-04  -8.8309554e-05  -8.8960854e-05   1.9692627e-04   0.0000000e+00   0.0000000e+00   0.0000000e+00   1.5690831e-04   0.0000000e+00   4.0326083e-05  -9.2316914e-06   2.3016166e-04  -1.3510601e-04  -2.5652334e-04   2.2376345e-05   8.0916623e-05  -2.2724774e-04   1.1201861e-04  -4.2323526e-04   0.0000000e+00   2.9295441e-05   1.2553762e-04   3.8835685e-04  -6.5521405e-05   1.5669685e-03   2.1366750e-04   7.7871964e-05   7.0855114e-05   1.6768707e-04   0.0000000e+00  -5.2989339e-05   2.2703689e-05   3.7799057e-05   3.3820336e-05  -1.0737507e-05  -2.1197462e-05  -1.2646511e-04   4.8394554e-05   4.8406056e-05   5.7287272e-07  -1.0744724e-06   8.7688038e-07   0.0000000e+00   0.0000000e+00   0.0000000e+00  -3.3598953e-05   0.0000000e+00   1.7392383e-06   3.5263861e-05  -1.1760103e-05  -3.5934070e-05  -2.0424674e-05  -1.7256906e-05  -2.9928907e-05   3.1095277e-05   5.9576565e-05  -4.9925546e-05   0.0000000e+00  -2.6215964e-05   1.3035124e-06   7.4880814e-06   3.7332921e-05   5.2719549e-05  -3.2863938e-05   1.0051842e-04   1.1043664e-04  -4.3006354e-05   0.0000000e+00   2.9977220e-05   9.8379888e-05   1.4869007e-06   1.3961071e-05   6.3618319e-05   2.7486874e-05   4.7281300e-05   1.0796639e-04   7.7283767e-05  -8.5048884e-06   1.0549073e-05   2.8046390e-05   0.0000000e+00   0.0000000e+00   0.0000000e+00   1.2102325e-05   0.0000000e+00   4.1306080e-05   1.8467684e-04   1.8498281e-04   1.4804385e-05   3.3962502e-05   2.6471501e-05   9.3009981e-05   1.0538522e-05   9.9063908e-05   1.4391853e-05   0.0000000e+00   2.7335658e-05   1.4191593e-05   2.2553295e-05   2.4455147e-06   1.5837399e-04   8.7872035e-05   1.1524942e-05   9.3881401e-05   9.3215533e-05   0.0000000e+00  -2.1306055e-05  -9.9205869e-05  -4.2362534e-05   1.4537199e-05   3.9374256e-06  -1.9034520e-05  -6.1234186e-05  -3.7314923e-05  -3.0379106e-06  -3.9990246e-06  -5.9567568e-06  -5.7877704e-05   0.0000000e+00   0.0000000e+00   0.0000000e+00  -1.3354375e-05   0.0000000e+00   1.0834883e-05   7.5778148e-06  -1.5013055e-05  -1.5609572e-05  -2.4498973e-05  -2.7411269e-05  -2.7900514e-05   6.3841833e-05   5.3822339e-05  -6.3729841e-05   0.0000000e+00  -1.7895749e-05  -1.9306712e-05   8.7444618e-06   3.4565459e-05  -2.2892267e-06  -1.6092916e-06   2.6475044e-05   2.4189167e-05  -6.2137535e-05   0.0000000e+00  -8.6741703e-06   2.4909055e-05  -6.6697275e-05   2.1926288e-04  -9.4692144e-05  -2.3513042e-06  -3.8364857e-05   3.5745222e-05   3.2357096e-05   1.9673785e-04   1.5920787e-04   5.6100841e-05   0.0000000e+00   0.0000000e+00   0.0000000e+00  -1.4885131e-05   0.0000000e+00  -2.2167053e-05  -3.2413616e-05  -4.2593655e-05  -4.3831298e-05  -3.3065336e-05  -4.1839063e-05  -2.5014501e-05   2.3729053e-04   2.5214740e-04  -4.0975555e-05   0.0000000e+00  -3.0610461e-05  -1.8660553e-05   1.2166377e-04   2.9860757e-04   1.1798814e-04  -1.1213377e-05  -2.9469719e-05  -3.3264728e-05  -4.6932248e-05   0.0000000e+00  -4.4878503e-05   8.4465725e-06  -8.1242951e-05  -4.8765401e-05  -2.9086109e-05  -4.5030975e-05  -7.3920084e-05  -1.6701663e-05  -1.4790165e-05  -5.5809348e-05  -6.5247511e-05  -4.1141120e-05   0.0000000e+00   0.0000000e+00   0.0000000e+00  -8.1420062e-05   0.0000000e+00  -3.2949799e-05  -5.7528544e-05  -2.3886648e-05  -8.8464343e-05  -7.3488897e-05  -5.5422332e-05  -3.4968709e-05  -3.7359540e-05  -3.0096730e-05  -6.6955282e-05   0.0000000e+00  -3.5162409e-05  -3.7987628e-05  -1.2819311e-06  -1.0406514e-08  -8.8343894e-06  -5.4683124e-05   2.1899689e-05   8.7538642e-05   3.1378492e-06   0.0000000e+00  -4.0692188e-05   4.5105282e-05  -2.3543050e-04   5.7741373e-06  -1.2592444e-04  -1.0219182e-04  -9.5328781e-05  -1.2691575e-04  -5.3586368e-05  -1.7562050e-04  -1.9036474e-04  -1.5038351e-04   0.0000000e+00   0.0000000e+00   0.0000000e+00  -6.8975398e-05   0.0000000e+00  -7.2497036e-05  -2.7030377e-05  -3.8779310e-06  -1.0907119e-04  -1.1656792e-04  -4.1959222e-05  -3.6698913e-05  -5.6754470e-05  -1.1452393e-04  -1.1014659e-04   0.0000000e+00  -4.2421879e-05  -7.6063004e-05  -1.2461638e-04  -2.3679406e-05   2.0446727e-04  -1.7471637e-04  -1.1790301e-04  -9.1629362e-05  -1.4470700e-04   0.0000000e+00  -6.7797963e-05  -5.7357356e-05   3.1202086e-05  -2.9045632e-05  -9.1209392e-05  -7.8724348e-05  -9.7285170e-05  -7.5836722e-05  -9.1464482e-05  -5.2700780e-06  -3.2116418e-05  -6.8306599e-05   0.0000000e+00   0.0000000e+00   0.0000000e+00  -9.9684733e-05   0.0000000e+00  -9.6538427e-05   1.2340582e-06  -6.6684896e-05  -9.0964910e-05  -2.6370423e-06   2.3551066e-05  -1.8199651e-05   1.0049501e-04   1.7668858e-05  -7.5950742e-05   0.0000000e+00  -6.7290513e-05  -4.1985786e-05  -6.3329422e-05   8.3938376e-05  -1.3527933e-06  -7.1830132e-04  -4.1157655e-04  -9.1573424e-05  -3.3322312e-04   0.0000000e+00  -2.5010073e-04  -4.8251030e-04  -2.0058252e-04  -3.4906033e-04  -2.0933889e-04  -3.8149762e-04  -2.0880780e-04  -3.7246781e-04  -4.5730108e-04  -3.4018815e-04  -2.1813457e-04  -5.3115772e-04   0.0000000e+00   0.0000000e+00   0.0000000e+00  -2.1863869e-04   0.0000000e+00  -3.0243058e-04  -1.7730019e-04  -1.7172240e-04  -2.2844658e-04   8.5963353e-05  -2.4264570e-04  -5.0196264e-05  -6.0795215e-05  -7.8634049e-05   2.5570719e-04   0.0000000e+00  -2.2989865e-04  -9.3345937e-05  -4.6004933e-04  -3.0698931e-04  -5.8417047e-04
   1.8926339e-05   2.2013785e-05  -3.3080850e-05  -3.8344725e-05   0.0000000e+00  -1.5290453e-05  -6.7161930e-06  -5.2203727e-05  -3.0490308e-05  -1.5014487e-05  -9.4499856e-08  -7.1716648e-06  -2.5254882e-06   4.0658773e-06  -6.4677670e-06  -2.6505043e-05  -8.1062847e-06   0.0000000e+00   0.0000000e+00   0.0000000e+00  -6.9849173e-06   0.0000000e+00  -2.4970981e-06   3.5576081e-06  -1.3568356e-05  -1.5017478e-05  -1.7652187e-05  -8.2582957e-06   8.1968758e-06  -4.6082103e-07  -1.3905499e-05  -7.5014867e-06   0.0000000e+00   7.3916324e-06  -1.7778565e-05  -3.5289850e-05  -1.7403637e-05   1.4935375e-05   1.2354181e-04   8.9790116e-05   1.3355123e-04   1.2687567e-04   0.0000000e+00   6.8720366e-05   1.9383308e-04   1.6780483e-04  -4.5940948e-06   1.6951990e-04   1.6112507e-04   1.3469387e-04   8.2572209e-05   1.0033491e-04  -1.7618792e-04  -7.5480756e-05   2.5380236e-05   0.0000000e+00   0.0000000e+00   0.0000000e+00   9.0996935e-05   0.0000000e+00   6.2574559e-05   1.0709763e-04   8.9371330e-05   8.2289072e-05   2.8343516e-05   1.0075186e-04   9.1388494e-05  -2.1728389e-04  -1.0067567e-04   1.4313416e-05   0.0000000e+00   6.2921859e-05   3.5260749e-06  -1.3519367e-05  -3.8428679e-05   2.2666843e-04   6.1767315e-04   5.3837993e-04   1.9032503e-04   3.7730152e-04   0.0000000e+00   1.1699371e-04   7.5756019e-04   6.1696340e-04   2.1300325e-04  -9.9552727e-05  -1.2285131e-04  -2.4262719e-05   3.1811885e-04   6.0794935e-04  -8.9462007e-05  -7.1447566e-05   2.2187730e-04   0.0000000e+00   0.0000000e+00   0.0000000e+00   1.7635450e-04   0.0000000e+00   4.5928862e-05  -3.9170991e-06   2.5348056e-04  -1.3406432e-04  -2.6785638e-04   2.2797078e-05   1.0011159e-04  -2.2730979e-04   1.9355310e-04  -4.2394498e-04   0.0000000e+00   2.7424121e-05   1.2670273e-04   4.0388520e-04  -5.2271712e-05   1.7585519e-03   2.2820564e-04   8.7575245e-05   7.5225510e-05   1.7168782e-04   0.0000000e+00  -6.0327755e-05   2.4851767e-05   3.4484356e-05   2.8591135e-05  -1.9537950e-05  -3.0399510e-05  -1.4264834e-04   5.0347137e-05   4.3883772e-05  -6.6471721e-06  -9.3340016e-06  -3.3342061e-07   0.0000000e+00   0.0000000e+00   0.0000000e+00  -4.2823559e-05   0.0000000e+00  -3.9498897e-06   4.3497726e-05  -1.3106085e-05  -4.5538135e-05  -2.5672612e-05  -2.1229664e-05  -3.2714730e-05   2.9701158e-05   6.3399420e-05  -5.8895674e-05   0.0000000e+00  -3.0858405e-05  -6.0625630e-06   5.7220818e-06   4.1487756e-05   5.9758698e-05  -6.0224493e-05   1.0693961e-04   1.1907721e-04  -5.1596204e-05   0.0000000e+00   4.5705091e-05   1.1443502e-04   7.0895824e-06   2.8161928e-05   7.2115036e-05   4.1084925e-05   7.0197299e-05   1.2054515e-04   9.3987064e-05  -5.9284327e-06   1.4706005e-05   3.5779334e-05   0.0000000e+00   0.0000000e+00   0.0000000e+00   2.7669358e-05   0.0000000e+00   4.7087772e-05   1.9118251e-04   1.9676934e-04   2.9151675e-05   4.4816282e-05   3.3431057e-05   1.0658229e-04   1.5677848e-05   1.2036137e-04   2.8780711e-05   0.0000000e+00   3.4504717e-05   1.8496260e-05   3.0056074e-05   5.7169415e-06   1.7277082e-04   1.0454214e-04   1.4498682e-05   1.1296973e-04   1.1429082e-04   0.0000000e+00  -2.8024336e-05  -1.0645601e-04  -4.3901814e-05   1.2207847e-05   1.8176193e-06  -2.4850068e-05  -7.7230293e-05  -4.1593845e-05  -4.8885359e-07  -1.0252384e-05  -1.4500655e-05  -6.4061513e-05   0.0000000e+00   0.0000000e+00   0.0000000e+00  -2.2444069e-05   0.0000000e+00   9.6567046e-06   1.5930153e-05  -1.4303714e-05  -2.2996910e-05  -3.1386016e-05  -3.1998340e-05  -3.3139789e-05   6.3484425e-05   6.0773259e-05  -7.6911149e-05   0.0000000e+00  -2.2618176e-05  -2.5773386e-05   7.1398254e-06   3.9818962e-05   1.0879829e-06  -6.9991537e-06   2.3038520e-05   1.4136915e-05  -8.2001778e-05   0.0000000e+00  -1.6361204e-05   7.4994362e-06  -8.4806105e-05   2.1832607e-04  -1.1755598e-04  -9.4784362e-06  -5.4187527e-05   2.8637429e-05   1.3992557e-05   1.9611641e-04   1.5521249e-04   5.7253579e-05   0.0000000e+00   0.0000000e+00   0.0000000e+00  -2.1847298e-05   0.0000000e+00  -3.0586604e-05  -4.0861288e-05  -5.3723262e-05  -5.4737365e-05  -4.2340656e-05  -5.0059422e-05  -3.3459264e-05   2.5945210e-04   2.5955446e-04  -5.0951226e-05   0.0000000e+00  -3.7600336e-05  -2.4567146e-05   1.2963706e-04   3.1432790e-04   1.2304771e-04  -1.7388064e-05  -3.5795809e-05  -3.8553297e-05  -5.8343113e-05   0.0000000e+00  -5.0207569e-05   5.6901251e-06  -8.8886704e-05  -5.1739340e-05  -3.3818143e-05  -5.2724236e-05  -8.4097422e-05  -2.2049889e-05  -1.2147283e-05  -5.9460073e-05  -7.1302626e-05  -4.6999051e-05   0.0000000e+00   0.0000000e+00   0.0000000e+00  -9.1276901e-05   0.0000000e+00  -3.8006488e-05  -6.8458356e-05  -3.3983891e-05  -9.9242087e-05  -8.4858790e-05  -6.5476342e-05  -4.3157185e-05  -4.7334582e-05  -3.4782752e-05  -7.4284746e-05   0.0000000e+00  -4.0624260e-05  -4.5122844e-05  -1.2309363e-06  -1.5701972e-06  -1.2098121e-05  -7.4920842e-05   3.0604691e-06   7.3729867e-05  -4.3536502e-07   0.0000000e+00  -6.4744489e-05   3.9781615e-05  -2.8232078e-04  -4.1508679e-05  -1.5887051e-04  -1.4565648e-04  -1.3451374e-04  -1.6985563e-04  -8.2333603e-05  -1.9619943e-04  -2.2425585e-04  -1.6922088e-04   0.0000000e+00   0.0000000e+00   0.0000000e+00  -1.0700840e-04   0.0000000e+00  -1.0564826e-04  -5.0540320e-05  -2.8115891e-05  -1.4241180e-04  -1.4072963e-04  -5.1507843e-05  -4.9609552e-05  -8.6323122e-05  -1.5028494e-04  -1.3816878e-04   0.0000000e+00  -5.2800919e-05  -9.5561219e-05  -1.5445437e-04  -3.8868513e-05   1.9900939e-04  -1.7669627e-04  -1.2330676e-04  -8.2620999e-05  -1.4739929e-04   0.0000000e+00  -7.2085619e-05  -4.1050625e-05   4.1523148e-05  -9.2802608e-06  -9.1474972e-05  -7.9424823e-05  -1.0553974e-04  -7.0408537e-05  -8.5712954e-05   1.8134597e-07  -2.1766972e-05  -6.3401232e-05   0.0000000e+00   0.0000000e+00   0.0000000e+00  -1.1103415e-04   0.0000000e+00  -1.0281164e-04   1.7289616e-07  -6.5682400e-05  -9.9681076e-05  -1.1993051e-05   2.6514447e-05  -1.9108462e-05   9.8679363e-05   1.9302238e-05  -9.2077247e-05   0.0000000e+00  -6.9140550e-05  -4.0188654e-05  -5.4243336e-05   8.6567317e-05   2.7243286e-05  -8.2317173e-04  -4.5616956e-04  -7.8432549e-05  -3.4552454e-04   0.0000000e+00  -2.5384978e-04  -5.6272874e-04  -2.1539372e-04  -3.6640353e-04  -2.1111967e-04  -4.1975879e-04  -1.9640017e-04  -4.0256317e-04  -5.2130465e-04  -3.5862748e-04  -2.1299635e-04  -5.9840114e-04   0.0000000e+00   0.0000000e+00   0.0000000e+00  -2.3685559e-04   0.0000000e+00  -3.4076073e-04  -1.5882595e-04  -1.6750671e-04  -2.4811233e-04   1.4622854e-04  -2.4718532e-04  -3.1216390e-05  -7.2161716e-05  -8.3081667e-05   3.4936098e-04   0.0000000e+00  -2.5318337e-04  -7.8741827e-05  -5.3306138e-04  -3.2909824e-04  -6.2579263e-04
   1.9374361e-05   2.0284217e-05  -3.9294098e-05  -4.8226489e-05   0.0000000e+00  -2.1010598e-05  -7.5033162e-06  -5.6113738e-05  -3.1248956e-05  -1.7765380e-05  -4.2805443e-06  -1.3687686e-05  -4.9588212e-06   5.0300882e-06  -3.1262408e-06  -2.6650599e-05  -1.0917958e-05   0.0000000e+00   0.0000000e+00   0.0000000e+00  -1.4415104e-05   0.0000000e+00  -6.4915916e-06  -1.4755315e-06  -1.9554584e-05  -2.4059317e-05  -2.6577459e-05  -1.4624425e-05   3.8701710e-06   3.7806732e-06  -1.4611735e-05  -1.6479812e-05   0.0000000e+00   4.3386919e-06  -2.4493951e-05  -3.6785031e-05  -1.6205496e-05   1.1166279e-05   1.2655700e-04   8.9558351e-05   1.3594219e-04   1.2785783e-04   0.0000000e+00   6.8210875e-05   2.1396965e-04   1.8582509e-04  -1.5111577e-05   1.8743443e-04   1.7451857e-04   1.4324422e-04   7.9844034e-05   1.0544229e-04  -2.0016796e-04  -8.7448162e-05   2.5474742e-05   0.0000000e+00   0.0000000e+00   0.0000000e+00   9.1085841e-05   0.0000000e+00   6.0448486e-05   1.0191129e-04   8.5264305e-05   7.9954509e-05   2.2615971e-05   1.0086920e-04   8.9013542e-05  -2.4886123e-04  -1.2201832e-04   1.3729417e-05   0.0000000e+00   6.2236944e-05  -8.2256835e-06  -3.1558041e-05  -4.4403570e-05   2.4446310e-04   6.6134949e-04   5.6975838e-04   2.1914757e-04   4.0213957e-04   0.0000000e+00   1.2676126e-04   8.2507622e-04   6.4650510e-04   2.4140370e-04  -7.7404538e-05  -1.0578128e-04   1.0198428e-05   3.5810169e-04   6.7323086e-04  -8.8163685e-05  -4.9177839e-05   2.4444556e-04   0.0000000e+00   0.0000000e+00   0.0000000e+00   1.9320445e-04   0.0000000e+00   5.1210479e-05   1.9091967e-06   2.7290018e-04  -1.2913824e-04  -2.7420726e-04   2.2682663e-05   1.1994188e-04  -2.2041131e-04   2.8335856e-04  -4.1490417e-04   0.0000000e+00   2.5193918e-05   1.2574352e-04   4.1105006e-04  -3.5675776e-05   1.9310419e-03   2.3602535e-04   9.5522900e-05   7.6123585e-05   1.6962894e-04   0.0000000e+00  -6.6914928e-05   2.6255395e-05   3.0670023e-05   2.0486256e-05  -2.9333083e-05  -4.0308734e-05  -1.5702361e-04   5.0820334e-05   3.6529312e-05  -1.4709971e-05  -1.8333837e-05  -1.5711640e-06   0.0000000e+00   0.0000000e+00   0.0000000e+00  -5.1751675e-05   0.0000000e+00  -1.0911258e-05   5.0503925e-05  -1.4749239e-05  -5.5058657e-05  -3.1120028e-05  -2.4610450e-05  -3.4629691e-05   2.7153391e-05   6.4644601e-05  -6.7513778e-05   0.0000000e+00  -3.5099875e-05  -1.4016241e-05   3.4397725e-06   4.4329055e-05   6.5585042e-05  -8.4322348e-05   1.1244504e-04   1.2530900e-04  -5.7015269e-05   0.0000000e+00   6.2114732e-05   1.2809484e-04   1.3350571e-05   4.3075969e-05   7.9597890e-05   5.5712373e-05   9.3656626e-05   1.3136227e-04   1.0935618e-04  -3.0687419e-06   1.8331981e-05   4.3898763e-05   0.0000000e+00   0.0000000e+00   0.0000000e+00   4.5444804e-05   0.0000000e+00   5.3252992e-05   1.9344700e-04   2.0360235e-04   4.5605330e-05   5.7047049e-05   4.0830283e-05   1.1934740e-04   2.1528064e-05   1.4164048e-04   4.4800606e-05   0.0000000e+00   4.2094031e-05   2.4205165e-05   3.7917739e-05   8.6635240e-06   1.8310135e-04   1.1779903e-04   1.7072465e-05   1.3029935e-04   1.3115735e-04   0.0000000e+00  -3.4551322e-05  -1.1061107e-04  -4.3262074e-05   1.0171561e-05  -3.0582934e-07  -3.0640468e-05  -9.1953216e-05  -4.5178699e-05   3.3179363e-06  -1.5489228e-05  -2.2691004e-05  -6.8566876e-05   0.0000000e+00   0.0000000e+00   0.0000000e+00  -3.2343234e-05   0.0000000e+00   7.8476277e-06   2.4917091e-05  -1.2897576e-05  -3.1178817e-05  -3.8569375e-05  -3.6885723e-05  -3.8483897e-05   6.0998189e-05   6.6787005e-05  -8.9495003e-05   0.0000000e+00  -2.7668442e-05  -3.3273392e-05   5.2684769e-06   4.4825595e-05   4.5637805e-06  -1.3650186e-05   1.7770354e-05   2.3680258e-06  -1.0222163e-04   0.0000000e+00  -2.4984362e-05  -1.1601739e-05  -1.0325328e-04   2.1126481e-04  -1.4032960e-04  -1.7996458e-05  -7.0962301e-05   2.0193302e-05  -7.2585520e-06   1.8949851e-04   1.4533943e-04   5.6730490e-05   0.0000000e+00   0.0000000e+00   0.0000000e+00  -2.9366018e-05   0.0000000e+00  -3.9426429e-05  -4.9490664e-05  -6.4783004e-05  -6.6134333e-05  -5.1986444e-05  -5.8478418e-05  -4.2176617e-05   2.7930597e-04   2.6555547e-04  -6.0966482e-05   0.0000000e+00  -4.4930674e-05  -3.0498087e-05   1.3636603e-04   3.2607047e-04   1.2481619e-04  -2.4367789e-05  -4.2396079e-05  -4.4013105e-05  -7.0919922e-05   0.0000000e+00  -5.5452187e-05   1.7726121e-06  -9.5324251e-05  -5.4210257e-05  -3.9535755e-05  -6.1141948e-05  -9.4302095e-05  -2.8636799e-05  -8.9404084e-06  -6.2157286e-05  -7.7211633e-05  -5.2911276e-05   0.0000000e+00   0.0000000e+00   0.0000000e+00  -1.0051589e-04   0.0000000e+00  -4.3103086e-05  -8.0099936e-05  -4.5652901e-05  -1.0902840e-04  -9.6105697e-05  -7.5795742e-05  -5.1982656e-05  -5.8131718e-05  -3.9296749e-05  -8.1360144e-05   0.0000000e+00  -4.5957458e-05  -5.2723146e-05  -1.0770833e-06  -3.7873452e-06  -1.6201866e-05  -9.3469725e-05  -1.8166312e-05   5.6889123e-05  -4.3973443e-06   0.0000000e+00  -9.0910419e-05   3.2070711e-05  -3.2262865e-04  -9.5707917e-05  -1.9257055e-04  -1.9264037e-04  -1.7697027e-04  -2.1437321e-04  -1.1873345e-04  -2.1263453e-04  -2.5623709e-04  -1.8422567e-04   0.0000000e+00   0.0000000e+00   0.0000000e+00  -1.4932011e-04   0.0000000e+00  -1.4102037e-04  -7.5188218e-05  -5.3167024e-05  -1.7821416e-04  -1.6551981e-04  -6.1015476e-05  -6.3683767e-05  -1.2113599e-04  -1.8915881e-04  -1.6748191e-04   0.0000000e+00  -6.2049663e-05  -1.1332517e-04  -1.8438296e-04  -5.6518127e-05   1.8491458e-04  -1.7233544e-04  -1.2535660e-04  -6.7775936e-05  -1.4571951e-04   0.0000000e+00  -7.4813025e-05  -1.8008090e-05   5.4635966e-05   1.6074967e-05  -8.7673015e-05  -7.7475896e-05  -1.1126892e-04  -6.0731295e-05  -7.4348985e-05   7.9074234e-06  -7.3340622e-06  -5.5185887e-05   0.0000000e+00   0.0000000e+00   0.0000000e+00  -1.2067181e-04   0.0000000e+00  -1.0686653e-04  -2.6025979e-06  -6.1479647e-05  -1.0748315e-04  -2.3607938e-05   2.8549449e-05  -2.0959116e-05   9.2266064e-05   2.1479713e-05  -1.0715486e-04   0.0000000e+00  -6.9334689e-05  -3.6918257e-05  -3.9963159e-05   8.6459764e-05   6.1568540e-05  -9.2115982e-04  -4.9304752e-04  -5.8156056e-05  -3.4646631e-04   0.0000000e+00  -2.4750922e-04  -6.4223803e-04  -2.2870337e-04  -3.7276549e-04  -2.0459771e-04  -4.4793538e-04  -1.7059913e-04  -4.2360976e-04  -5.8161748e-04  -3.6643500e-04  -1.9738395e-04  -6.5664563e-04   0.0000000e+00   0.0000000e+00   0.0000000e+00  -2.4856709e-04   0.0000000e+00  -3.7478924e-04  -1.2865369e-04  -1.5675426e-04  -2.6157174e-04   2.1847001e-04  -2.4305460e-04  -7.6166398e-06  -7.9215349e-05  -8.3576548e-05   4.5627190e-04   0.0000000e+00  -2.7204016e-04  -5.7854372e-05  -6.0146158e-04  -3.4194054e-04  -6.5832841e-04
   1.9643634e-05   1.7910401e-05  -4.4894386e-05  -5.7761180e-05   0.0000000e+00  -2.6757450e-05  -7.3966280e-06  -5.8240815e-05  -3.0591542e-05  -1.9922522e-05  -8.3678838e-06  -2.0354655e-05  -6.9318677e-06   7.0424522e-06   8.2816312e-07  -2.5497894e-05  -1.3593168e-05   0.0000000e+00   0.0000000e+00   0.0000000e+00  -2.2458615e-05   0.0000000e+00  -1.0678483e-05  -6.8354286e-06  -2.5263086e-05  -3.3614356e-05  -3.5735724e-05  -2.1363446e-05  -1.0822660e-06   8.5960935e-06  -1.4318817e-05  -2.6012592e-05   0.0000000e+00   7.7298245e-07  -3.1134176e-05  -3.7286983e-05  -1.4104972e-05   7.2334784e-06   1.2630569e-04   8.5659017e-05   1.3658084e-04   1.2548554e-04   0.0000000e+00   6.5706257e-05   2.3247675e-04   1.9840225e-04  -2.3499416e-05   2.0520696e-04   1.8758790e-04   1.5037421e-04   7.7043784e-05   1.1121462e-04  -2.2265585e-04  -9.7118881e-05   2.5460764e-05   0.0000000e+00   0.0000000e+00   0.0000000e+00   8.8557520e-05   0.0000000e+00   5.6803657e-05   9.3337545e-05   7.8009410e-05   7.5904869e-05   1.5790292e-05   9.8905067e-05   8.4408860e-05  -2.7560968e-04  -1.3987897e-04   1.3197424e-05   0.0000000e+00   5.9476369e-05  -2.1945978e-05  -4.9576680e-05  -4.8421845e-05   2.5780848e-04   6.9486239e-04   5.9251359e-04   2.4545656e-04   4.1907873e-04   0.0000000e+00   1.3487484e-04   8.8240081e-04   6.6657967e-04   2.6754366e-04  -5.2740904e-05  -8.4880652e-05   4.7262855e-05   3.9368687e-04   7.3211991e-04  -8.4915232e-05  -2.3763093e-05   2.6421837e-04   0.0000000e+00   0.0000000e+00   0.0000000e+00   2.0736785e-04   0.0000000e+00   5.6177397e-05   8.1500184e-06   2.8848733e-04  -1.2094292e-04  -2.7600132e-04   2.2397850e-05   1.4001275e-04  -2.0736936e-04   3.7784659e-04  -3.9802016e-04   0.0000000e+00   2.3110228e-05   1.2373642e-04   4.1145813e-04  -1.7052584e-05   2.0815012e-03   2.3724962e-04   1.0148109e-04   7.3332232e-05   1.6207468e-04   0.0000000e+00  -7.2555335e-05   2.6907761e-05   2.6979003e-05   9.7450279e-06  -3.9629798e-05  -5.0458169e-05  -1.6920558e-04   5.0002393e-05   2.6674229e-05  -2.3201928e-05  -2.7502635e-05  -2.6582260e-06   0.0000000e+00   0.0000000e+00   0.0000000e+00  -5.9957038e-05   0.0000000e+00  -1.8825100e-05   5.5839357e-05  -1.6626560e-05  -6.4071349e-05  -3.6468132e-05  -2.7115607e-05  -3.5507206e-05   2.3703432e-05   6.3189135e-05  -7.5454847e-05   0.0000000e+00  -3.8739115e-05  -2.1936276e-05   8.2625727e-07   4.5646263e-05   6.9933073e-05  -1.0308938e-04   1.1767937e-04   1.2945447e-04  -5.8876036e-05   0.0000000e+00   7.8329766e-05   1.3858851e-04   1.9911556e-05   5.7755177e-05   8.5857236e-05   7.0660247e-05   1.1627748e-04   1.4007522e-04   1.2240715e-04  -2.4779901e-07   2.1031371e-05   5.2122346e-05   0.0000000e+00   0.0000000e+00   0.0000000e+00   6.4460103e-05   0.0000000e+00   5.9848742e-05   1.9260624e-04   2.0600260e-04   6.3398841e-05   7.0376307e-05   4.8378286e-05   1.3106152e-04   2.7919365e-05   1.6219645e-04   6.1659428e-05   0.0000000e+00   4.9879737e-05   3.1284379e-05   4.5939693e-05   1.1075240e-05   1.8892072e-04   1.2608453e-04   1.8886614e-05   1.4492961e-04   1.4226105e-04   0.0000000e+00  -4.0460015e-05  -1.1150823e-04  -4.0393824e-05   8.7980466e-06  -2.2286012e-06  -3.6106082e-05  -1.0447258e-04  -4.8034897e-05   8.4134836e-06  -1.9176661e-05  -2.9894282e-05  -7.1216240e-05   0.0000000e+00   0.0000000e+00   0.0000000e+00  -4.2513374e-05   0.0000000e+00   5.4754813e-06   3.3890682e-05  -1.0970989e-05  -3.9758266e-05  -4.5800461e-05  -4.1979189e-05  -4.3854459e-05   5.6758747e-05   7.1750634e-05  -1.0091366e-04   0.0000000e+00  -3.2924409e-05  -4.1699954e-05   3.3565172e-06   4.9523022e-05   7.8804947e-06  -2.1477017e-05   1.0900522e-05  -1.0588301e-05  -1.2199061e-04   0.0000000e+00  -3.4210586e-05  -3.1503861e-05  -1.2220691e-04   1.9887530e-04  -1.6225977e-04  -2.7725232e-05  -8.7956296e-05   1.0771438e-05  -3.0601741e-05   1.7768423e-04   1.3007663e-04   5.4585521e-05   0.0000000e+00   0.0000000e+00   0.0000000e+00  -3.7127134e-05   0.0000000e+00  -4.8362708e-05  -5.7992750e-05  -7.5465671e-05  -7.7648814e-05  -6.1635244e-05  -6.6900614e-05  -5.0703675e-05   2.9723475e-04   2.7163331e-04  -7.0544792e-05   0.0000000e+00  -5.2442789e-05  -3.6355270e-05   1.4212976e-04   3.3475659e-04   1.2336685e-04  -3.2026047e-05  -4.9241605e-05  -4.9661706e-05  -8.4559778e-05   0.0000000e+00  -6.0677997e-05  -3.2414412e-06  -1.0064714e-04  -5.6375867e-05  -4.6373886e-05  -7.0254338e-05  -1.0453035e-04  -3.6496516e-05  -5.4543608e-06  -6.4066090e-05  -8.3132469e-05  -5.8828620e-05   0.0000000e+00   0.0000000e+00   0.0000000e+00  -1.0907674e-04   0.0000000e+00  -4.8189168e-05  -9.2363604e-05  -5.8684120e-05  -1.1766783e-04  -1.0703031e-04  -8.6267082e-05  -6.1336253e-05  -6.9555523e-05  -4.3591218e-05  -8.8198578e-05   0.0000000e+00  -5.1097920e-05  -6.0688752e-05  -7.8627806e-07  -6.7137479e-06  -2.1213264e-05  -1.0971053e-04  -4.0653361e-05   3.8280336e-05  -9.4051989e-06   0.0000000e+00  -1.1810983e-04   2.1911186e-05  -3.5381746e-04  -1.5490366e-04  -2.2618710e-04  -2.4186393e-04  -2.2123128e-04  -2.5927139e-04  -1.6318928e-04  -2.2430252e-04  -2.8550923e-04  -1.9484620e-04   0.0000000e+00   0.0000000e+00   0.0000000e+00  -1.9454263e-04   0.0000000e+00  -1.7745701e-04  -9.9857782e-05  -7.7225830e-05  -2.1578356e-04  -1.9062962e-04  -7.0430006e-05  -7.8737104e-05  -1.6060619e-04  -2.3050311e-04  -1.9750194e-04   0.0000000e+00  -6.9481483e-05  -1.2849073e-04  -2.1341583e-04  -7.6173707e-05   1.6285047e-04  -1.6272346e-04  -1.2453323e-04  -4.7931489e-05  -1.4031194e-04   0.0000000e+00  -7.6123638e-05   1.0364973e-05   7.0123278e-05   4.5463724e-05  -8.0113404e-05  -7.3441437e-05  -1.1439255e-04  -4.7776926e-05  -5.8522817e-05   1.7558370e-05   1.0520250e-05  -4.4470508e-05   0.0000000e+00   0.0000000e+00   0.0000000e+00  -1.2842750e-04   0.0000000e+00  -1.0900280e-04  -7.3324360e-06  -5.4404637e-05  -1.1460526e-04  -3.6971821e-05   2.9395859e-05  -2.4007291e-05   8.1916226e-05   2.4123316e-05  -1.2014515e-04   0.0000000e+00  -6.8294324e-05  -3.2679087e-05  -2.1367227e-05   8.3700503e-05   9.9811490e-05  -1.0106622e-03  -5.2162707e-04  -3.1783620e-05  -3.3637594e-04   0.0000000e+00  -2.3115630e-04  -7.1892511e-04  -2.3983838e-04  -3.6859136e-04  -1.9035416e-04  -4.6524247e-04  -1.3168227e-04  -4.3534962e-04  -6.3718180e-04  -3.6290058e-04  -1.7154320e-04  -7.0447278e-04   0.0000000e+00   0.0000000e+00   0.0000000e+00  -2.5312590e-04   0.0000000e+00  -4.0393942e-04  -8.6984138e-05  -1.4014728e-04  -2.6814088e-04   3.0203848e-04  -2.3030636e-04   2.0167608e-05  -7.9498471e-05  -7.7481158e-05   5.7497518e-04   0.0000000e+00  -2.8615909e-04  -3.1275301e-05  -6.6237894e-04  -3.4464213e-04  -6.8429118e-04
   1.9730289e-05   1.5004998e-05  -4.9721406e-05  -6.6724112e-05   0.0000000e+00  -3.2337884e-05  -6.3488338e-06  -5.8441944e-05  -2.8504442e-05  -2.1440607e-05  -1.2164800e-05  -2.6936416e-05  -8.3230964e-06   1.0175617e-05   5.2553658e-06  -2.3064856e-05  -1.6013278e-05   0.0000000e+00   0.0000000e+00   0.0000000e+00  -3.0845742e-05   0.0000000e+00  -1.4917422e-05  -1.2397168e-05  -3.0539946e-05  -4.3392673e-05  -4.4825495e-05  -2.8318322e-05  -6.5524502e-06   1.3727280e-05  -1.3002292e-05  -3.5743195e-05   0.0000000e+00  -3.1879870e-06  -3.7494116e-05  -3.6830038e-05  -1.1110188e-05   3.3521892e-06   1.2284676e-04   7.8103190e-05   1.3593302e-04   1.1983269e-04   0.0000000e+00   6.1434653e-05   2.4877023e-04   2.0453639e-04  -2.8914066e-05   2.2274666e-04   2.0043006e-04   1.5623153e-04   7.4930024e-05   1.1792175e-04  -2.4330844e-04  -1.0390012e-04   2.5411322e-05   0.0000000e+00   0.0000000e+00   0.0000000e+00   8.3545518e-05   0.0000000e+00   5.1847225e-05   8.1861599e-05   6.7853692e-05   7.0474016e-05   8.2159289e-06   9.5125185e-05   7.7842175e-05  -2.9618174e-04  -1.5317184e-04   1.2804687e-05   0.0000000e+00   5.4761847e-05  -3.7239657e-05  -6.6462294e-05  -4.9810876e-05   2.6612129e-04   7.1853900e-04   6.0760251e-04   2.6839987e-04   4.2815198e-04   0.0000000e+00   1.4144729e-04   9.2866203e-04   6.7814416e-04   2.9027328e-04  -2.7438209e-05  -6.1770756e-05   8.4964306e-05   4.2356169e-04   7.8325427e-04  -8.0390460e-05   2.9314639e-06   2.8088316e-04   0.0000000e+00   0.0000000e+00   0.0000000e+00   2.1897147e-04   0.0000000e+00   6.0840209e-05   1.4754376e-05   3.0053154e-04  -1.1021493e-04  -2.7371017e-04   2.2355664e-05   1.5992553e-04  -1.8921823e-04   4.7319307e-04  -3.7533070e-04   0.0000000e+00   2.1656332e-05   1.2179035e-04   4.0703792e-04   2.1148492e-06   2.2079621e-03   2.3258566e-04   1.0537171e-04   6.6925781e-05   1.4996573e-04   0.0000000e+00  -7.7081398e-05   2.6870041e-05   2.4006501e-05  -3.1795716e-06  -4.9876321e-05  -6.0336902e-05  -1.7885318e-04   4.8176421e-05   1.4824709e-05  -3.1682561e-05  -3.6237085e-05  -3.4062811e-06   0.0000000e+00   0.0000000e+00   0.0000000e+00  -6.7047954e-05   0.0000000e+00  -2.7289273e-05   5.9218929e-05  -1.8615351e-05  -7.2172100e-05  -4.1380206e-05  -2.8513538e-05  -3.5218599e-05   1.9656520e-05   5.9126811e-05  -8.2395305e-05   0.0000000e+00  -4.1596352e-05  -2.9186744e-05  -1.8943958e-06   4.5329125e-05   7.2613940e-05  -1.1512728e-04   1.2326628e-04   1.3196990e-04  -5.7178586e-05   0.0000000e+00   9.3521993e-05   1.4534405e-04   2.6364896e-05   7.1283064e-05   9.0752166e-05   8.5213162e-05   1.3679879e-04   1.4641032e-04   1.3229013e-04   2.1926308e-06   2.2443113e-05   6.0136562e-05   0.0000000e+00   0.0000000e+00   0.0000000e+00   8.3637574e-05   0.0000000e+00   6.6865369e-05   1.8996210e-04   2.0481772e-04   8.1668985e-05   8.4438832e-05   5.5751706e-05   1.4153984e-04   3.4641439e-05   1.8135658e-04   7.8533479e-05   0.0000000e+00   5.7623885e-05   3.9562034e-05   5.3930843e-05   1.2801857e-05   1.9001889e-04   1.2810298e-04   1.9582681e-05   1.5609022e-04   1.4653256e-04   0.0000000e+00  -4.5342642e-05  -1.0913757e-04  -3.5355884e-05   8.4231860e-06  -3.7634164e-06  -4.0950234e-05  -1.1397784e-04  -5.0172659e-05   1.4797674e-05  -2.0921661e-05  -3.5564282e-05  -7.1937165e-05   0.0000000e+00   0.0000000e+00   0.0000000e+00  -5.2369753e-05   0.0000000e+00   2.6345781e-06   4.2122072e-05  -8.7781966e-06  -4.8268747e-05  -5.2815419e-05  -4.7127337e-05  -4.9164687e-05   5.1238433e-05   7.5633122e-05  -1.1064471e-04   0.0000000e+00  -3.8240672e-05  -5.0861313e-05   1.6423025e-06   5.3867441e-05   1.0806258e-05  -3.0349092e-05   2.7669268e-06  -2.4239371e-05  -1.4055099e-04   0.0000000e+00  -4.3673630e-05  -5.1462210e-05  -1.4199284e-04   1.8197607e-04  -1.8262381e-04  -3.8402777e-05  -1.0440131e-04   6.5523044e-07  -5.5283357e-05   1.6163813e-04   1.1011032e-04   5.0918025e-05   0.0000000e+00   0.0000000e+00   0.0000000e+00  -4.4793518e-05   0.0000000e+00  -5.7067845e-05  -6.6041811e-05  -8.5500217e-05  -8.8864522e-05  -7.0879290e-05  -7.5097365e-05  -5.8540743e-05   3.1367772e-04   2.7884470e-04  -7.9179335e-05   0.0000000e+00  -5.9965419e-05  -4.2074538e-05   1.4715555e-04   3.4121936e-04   1.1894003e-04  -4.0233528e-05  -5.6314394e-05  -5.5491108e-05  -9.9093473e-05   0.0000000e+00  -6.5944243e-05  -9.2167068e-06  -1.0503119e-04  -5.8406705e-05  -5.4378836e-05  -7.9950206e-05  -1.1475626e-04  -4.5566548e-05  -1.9732127e-06  -6.5390717e-05  -8.9187550e-05  -6.4673937e-05   0.0000000e+00   0.0000000e+00   0.0000000e+00  -1.1689992e-04   0.0000000e+00  -5.3200974e-05  -1.0510656e-04  -7.2792114e-05  -1.2503618e-04  -1.1742350e-04  -9.6770966e-05  -7.1083265e-05  -8.1392891e-05  -4.7616154e-05  -9.4785103e-05   0.0000000e+00  -5.5991989e-05  -6.8873412e-05  -3.2274113e-07  -1.0359407e-05  -2.7148992e-05  -1.2355297e-04  -6.3354619e-05   1.9053340e-05  -1.6363429e-05   0.0000000e+00  -1.4520110e-04   9.1851980e-06  -3.7402768e-04  -2.1715113e-04  -2.5899414e-04  -2.9205489e-04  -2.6568576e-04  -3.0353232e-04  -2.1572738e-04  -2.3082401e-04  -3.1150651e-04  -2.0081492e-04   0.0000000e+00   0.0000000e+00   0.0000000e+00  -2.4114674e-04   0.0000000e+00  -2.1387254e-04  -1.2363343e-04  -9.8660967e-05  -2.5438442e-04  -2.1576146e-04  -7.9782203e-05  -9.4599468e-05  -2.0389323e-04  -2.7364249e-04  -2.2760488e-04   0.0000000e+00  -7.4519484e-05  -1.4042464e-04  -2.4067696e-04  -9.7293826e-05   1.3375509e-04  -1.4949790e-04  -1.2161824e-04  -2.4344464e-05  -1.3208551e-04   0.0000000e+00  -7.6257090e-05   4.1955813e-05   8.7163484e-05   7.6764123e-05  -6.9406796e-05  -6.8123414e-05  -1.1498816e-04  -3.2930734e-05  -4.0047094e-05   2.8514711e-05   3.0771285e-05  -3.2324582e-05   0.0000000e+00   0.0000000e+00   0.0000000e+00  -1.3426205e-04   0.0000000e+00  -1.0973317e-04  -1.4059022e-05  -4.5026138e-05  -1.2136532e-04  -5.1344194e-05   2.8867171e-05  -2.8361559e-05   6.8696888e-05   2.7018347e-05  -1.3004050e-04   0.0000000e+00  -6.6562826e-05  -2.8079954e-05   1.8291197e-07   7.8525565e-05   1.3964887e-04  -1.0907463e-03  -5.4186886e-04  -1.0055046e-06  -3.1623047e-04   0.0000000e+00  -2.0529365e-04  -7.9066819e-04  -2.4762679e-04  -3.5531209e-04  -1.6942335e-04  -4.7162084e-04  -8.0573761e-05  -4.3804847e-04  -6.8721514e-04  -3.4787874e-04  -1.3622953e-04  -7.4106719e-04   0.0000000e+00   0.0000000e+00   0.0000000e+00  -2.5023020e-04   0.0000000e+00  -4.2794191e-04  -3.4405129e-05  -1.1858568e-04  -2.6742606e-04   3.9588681e-04  -2.0930133e-04   5.1720774e-05  -7.0744388e-05  -6.2140064e-05   7.0349512e-04   0.0000000e+00  -2.9544465e-04   2.3135484e-07  -7.1309874e-04  -3.3686323e-04  -7.0701161e-04
   1.9606605e-05   1.1680337e-05  -5.3697486e-05  -7.4991247e-05   0.0000000e+00  -3.7597225e-05  -4.4159149e-06  -5.6684435e-05  -2.5075863e-05  -2.2356371e-05  -1.5548279e-05  -3.3252340e-05  -9.0977182e-06   1.4385169e-05   1.0005428e-05  -1.9456684e-05  -1.8086539e-05   0.0000000e+00   0.0000000e+00   0.0000000e+00  -3.9319468e-05   0.0000000e+00  -1.9095244e-05  -1.8089679e-05  -3.5325135e-05  -5.3135987e-05  -5.3595355e-05  -3.5367742e-05  -1.2449614e-05   1.8895791e-05  -1.0722205e-05  -4.5347065e-05   0.0000000e+00  -7.4274482e-06  -4.3425669e-05  -3.5501568e-05  -7.2630870e-06  -3.2859392e-07   1.1633896e-04   6.7069952e-05   1.3441605e-04   1.1101838e-04   0.0000000e+00   5.5717615e-05   2.6223951e-04   2.0364197e-04  -3.0855261e-05   2.3988140e-04   2.1305142e-04   1.6099206e-04   7.4135572e-05   1.2557591e-04  -2.6192339e-04  -1.0740138e-04   2.5384757e-05   0.0000000e+00   0.0000000e+00   0.0000000e+00   7.6275154e-05   0.0000000e+00   4.5778431e-05   6.8051912e-05   5.5120914e-05   6.3997001e-05   2.6069245e-07   8.9825920e-05   6.9611686e-05  -3.0957629e-04  -1.6119854e-04   1.2633474e-05   0.0000000e+00   4.8303374e-05  -5.3664803e-05  -8.1231730e-05  -4.7989673e-05   2.6895063e-04   7.3314208e-04   6.1631969e-04   2.8722589e-04   4.2973730e-04   0.0000000e+00   1.4668047e-04   9.6327976e-04   6.8235863e-04   3.0838297e-04  -3.3930313e-06  -3.8221915e-05   1.2137704e-04   4.4658951e-04   8.2541512e-04  -7.5417721e-05   2.8880323e-05   2.9423858e-04   0.0000000e+00   0.0000000e+00   0.0000000e+00   2.2831199e-04   0.0000000e+00   6.5186430e-05   2.1699016e-05   3.0949808e-04  -9.7779470e-05  -2.6782357e-04   2.2956050e-05   1.7927960e-04  -1.6715939e-04   5.6555885e-04  -3.4886921e-04   0.0000000e+00   2.1256850e-05   1.2093555e-04   3.9986583e-04   2.0276454e-05   2.3095147e-03   2.2321249e-04   1.0727778e-04   5.7262438e-05   1.3450647e-04   0.0000000e+00  -8.0361035e-05   2.6262872e-05   2.2271270e-05  -1.7634264e-05  -5.9496350e-05  -6.9419611e-05  -1.8568603e-04   4.5700390e-05   1.6375003e-06  -3.9700908e-05  -4.3934981e-05  -3.6341751e-06   0.0000000e+00   0.0000000e+00   0.0000000e+00  -7.2678341e-05   0.0000000e+00  -3.5843940e-05   6.0552127e-05  -2.0533908e-05  -7.8993487e-05  -4.5500572e-05  -2.8638065e-05  -3.3675570e-05   1.5356336e-05   5.2774978e-05  -8.8029611e-05   0.0000000e+00  -4.3521818e-05  -3.5162628e-05  -4.4740519e-06   4.3381000e-05   7.3528820e-05  -1.1976278e-04   1.2974187e-04   1.3337634e-04  -5.2302276e-05   0.0000000e+00   1.0696971e-04   1.4803335e-04   3.2274129e-05   8.2838309e-05   9.4215666e-05   9.8700999e-05   1.5416724e-04   1.5017642e-04   1.3836047e-04   3.9108540e-06   2.2263963e-05   6.7622268e-05   0.0000000e+00   0.0000000e+00   0.0000000e+00   1.0187797e-04   0.0000000e+00   7.4220846e-05   1.8683773e-04   2.0111289e-04   9.9512748e-05   9.8795256e-05   6.2616970e-05   1.5065414e-04   4.1441016e-05   1.9851618e-04   9.4620522e-05   0.0000000e+00   6.5080824e-05   4.8735229e-05   6.1709414e-05   1.3755885e-05   1.8643672e-04   1.2299347e-04   1.8835713e-05   1.6324821e-04   1.4349951e-04   0.0000000e+00  -4.8830313e-05  -1.0363579e-04  -2.8292284e-05   9.3416868e-06  -4.7485988e-06  -4.4892742e-05  -1.1981036e-04  -5.1636818e-05   2.2450507e-05  -2.0478945e-05  -3.9260009e-05  -7.0757143e-05   0.0000000e+00   0.0000000e+00   0.0000000e+00  -6.1314741e-05   0.0000000e+00  -5.5254456e-07   4.8840847e-05  -6.6436014e-06  -5.6199739e-05  -5.9348446e-05  -5.2127207e-05  -5.4321110e-05   4.4972788e-05   7.8488041e-05  -1.1823644e-04   0.0000000e+00  -4.3452588e-05  -6.0480480e-05   3.5978521e-07   5.7831224e-05   1.3154698e-05  -4.0091469e-05  -6.2027183e-06  -3.8153170e-05  -1.5721735e-04   0.0000000e+00  -5.2986560e-05  -7.0910274e-05  -1.6301990e-04   1.6133155e-04  -2.0076150e-04  -4.9681160e-05  -1.1953924e-04  -9.9398852e-06  -8.0608830e-05   1.4239607e-04   8.6301157e-05   4.5874775e-05   0.0000000e+00   0.0000000e+00   0.0000000e+00  -5.2024357e-05   0.0000000e+00  -6.5222570e-05  -7.3304617e-05  -9.4644197e-05  -9.9344664e-05  -7.9278933e-05  -8.2810342e-05  -6.5183631e-05   3.2907347e-04   2.8770538e-04  -8.6355312e-05   0.0000000e+00  -6.7319717e-05  -4.7613245e-05   1.5159878e-04   3.4610371e-04   1.1193357e-04  -4.8867505e-05  -6.3599172e-05  -6.1457673e-05  -1.1428847e-04   0.0000000e+00  -7.1288626e-05  -1.5959008e-05  -1.0872495e-04  -6.0428162e-05  -6.3499972e-05  -9.0040994e-05  -1.2492456e-04  -5.5694650e-05   1.2337723e-06  -6.6350508e-05  -9.5460121e-05  -7.0345615e-05   0.0000000e+00   0.0000000e+00   0.0000000e+00  -1.2393682e-04   0.0000000e+00  -5.8063210e-05  -1.1813792e-04  -8.7625175e-05  -1.3105185e-04  -1.2706305e-04  -1.0718077e-04  -8.1062298e-05  -9.3420722e-05  -5.1321264e-05  -1.0107350e-04   0.0000000e+00  -6.0593502e-05  -7.7090285e-05   3.4317088e-07  -1.4685664e-05  -3.3968306e-05  -1.3545024e-04  -8.5385832e-05   1.5285261e-07  -2.6319342e-05   0.0000000e+00  -1.7103536e-04  -6.2599138e-06  -3.8219756e-04  -2.8055302e-04  -2.9038948e-04  -3.4198549e-04  -3.0865163e-04  -3.4633551e-04  -2.7596680e-04  -2.3206831e-04  -3.3389430e-04  -2.0215829e-04   0.0000000e+00   0.0000000e+00   0.0000000e+00  -2.8751261e-04   0.0000000e+00  -2.4929801e-04  -1.4586559e-04  -1.1613617e-04  -2.9324629e-04  -2.4062103e-04  -8.9173386e-05  -1.1111059e-04  -2.4992909e-04  -3.1788258e-04  -2.5712212e-04   0.0000000e+00  -7.6742416e-05  -1.4874537e-04  -2.6544660e-04  -1.1928289e-04   9.8765899e-05  -1.3479328e-04  -1.1765614e-04   1.3634259e-06  -1.2217020e-04   0.0000000e+00  -7.5540066e-05   7.4042611e-05   1.0454778e-04   1.0737697e-04  -5.6415719e-05  -6.2522393e-05  -1.1331840e-04  -1.7950869e-05  -2.1334611e-05   3.9906838e-05   5.2083103e-05  -2.0026963e-05   0.0000000e+00   0.0000000e+00   0.0000000e+00  -1.3827030e-04   0.0000000e+00  -1.0974131e-04  -2.2628034e-05  -3.4111969e-05  -1.2813779e-04  -6.5800198e-05   2.6868901e-05  -3.3954180e-05   5.4052742e-05   2.9826692e-05  -1.3591835e-04   0.0000000e+00  -6.4774033e-05  -2.3786175e-05   2.2915181e-05   7.1318394e-05   1.7837326e-04  -1.1611383e-03  -5.5423884e-04   3.1930049e-05  -2.8760376e-04   0.0000000e+00  -1.7082044e-04  -8.5546043e-04  -2.5046980e-04  -3.3531771e-04  -1.4319273e-04  -4.6770878e-04  -1.8766800e-05  -4.3247773e-04  -7.3125443e-04  -3.2189893e-04  -9.2708432e-05  -7.6621602e-04   0.0000000e+00   0.0000000e+00   0.0000000e+00  -2.3994591e-04   0.0000000e+00  -4.4681633e-04   2.8112489e-05  -9.3111968e-05  -2.5935987e-04   4.9857653e-04  -1.8070112e-04   8.6643246e-05  -5.1103668e-05  -3.5260319e-05   8.3940949e-04   0.0000000e+00  -3.0000452e-04   3.5772003e-05  -7.5129310e-04  -3.1888742e-04  -7.3030382e-04
   1.9223754e-05   8.0419014e-06  -5.6830678e-05  -8.2537718e-05   0.0000000e+00  -4.2423767e-05  -1.7535775e-06  -5.3048623e-05  -2.0491271e-05  -2.2786406e-05  -1.8470686e-05  -3.9186375e-05  -9.3056079e-06   1.9503728e-05   1.4928017e-05  -1.4858794e-05  -1.9751857e-05   0.0000000e+00   0.0000000e+00   0.0000000e+00  -4.7643676e-05   0.0000000e+00  -2.3131185e-05  -2.3894192e-05  -3.9648715e-05  -6.2621486e-05  -6.1852249e-05  -4.2426278e-05  -1.8701390e-05   2.3823319e-05  -7.6163569e-06  -5.4546879e-05   0.0000000e+00  -1.1833986e-05  -4.8841288e-05  -3.3434625e-05  -2.6402165e-06  -3.7382408e-06   1.0702259e-04   5.2904272e-05   1.3236552e-04   9.9197549e-05   0.0000000e+00   4.8955415e-05   2.7230358e-04   1.9564670e-04  -2.9210302e-05   2.5635558e-04   2.2537322e-04   1.6485382e-04   7.5110748e-05   1.3390887e-04  -2.7842439e-04  -1.0745775e-04   2.5432947e-05   0.0000000e+00   0.0000000e+00   0.0000000e+00   6.7049535e-05   0.0000000e+00   3.8777356e-05   5.2526630e-05   4.0201839e-05   5.6804675e-05  -7.7054149e-06   8.3328824e-05   6.0050633e-05  -3.1518204e-04  -1.6367947e-04   1.2771374e-05   0.0000000e+00   4.0393515e-05  -7.0753315e-05  -9.3094242e-05  -4.2503917e-05   2.6600952e-04   7.3977213e-04   6.2016844e-04   3.0128842e-04   4.2448918e-04   0.0000000e+00   1.5083719e-04   9.8597704e-04   6.8047183e-04   3.2065692e-04   1.7581343e-05  -1.6038044e-05   1.5468425e-04   4.6185881e-04   8.5754885e-04  -7.0932122e-05   5.2020429e-05   3.0417836e-04   0.0000000e+00   0.0000000e+00   0.0000000e+00   2.3581476e-04   0.0000000e+00   6.9174819e-05   2.8943221e-05   3.1595142e-04  -8.4497384e-05  -2.5881734e-04   2.4550525e-05   1.9769049e-04  -1.4247992e-04   6.5130048e-04  -3.2055997e-04   0.0000000e+00   2.2239766e-05   1.2204384e-04   3.9197562e-04   3.5917901e-05   2.3863084e-03   2.1060205e-04   1.0743413e-04   4.4942738e-05   1.1702748e-04   0.0000000e+00  -8.2302436e-05   2.5250720e-05   2.2171362e-05  -3.2802890e-05  -6.7925451e-05  -7.7199502e-05  -1.8950538e-04   4.2971885e-05  -1.2127483e-05  -4.6815524e-05  -5.0033059e-05  -3.1834716e-06   0.0000000e+00   0.0000000e+00   0.0000000e+00  -7.6563538e-05   0.0000000e+00  -4.4002180e-05   5.9956036e-05  -2.2146205e-05  -8.4223582e-05  -4.8484282e-05  -2.7397151e-05  -3.0841962e-05   1.1165156e-05   4.4656035e-05  -9.2085867e-05   0.0000000e+00  -4.4404328e-05  -3.9334377e-05  -6.6562843e-06   3.9922122e-05   7.2675132e-05  -1.1706134e-04   1.3748662e-04   1.3419031e-04  -4.4952575e-05   0.0000000e+00   1.1810696e-04   1.4657453e-04   3.7203089e-05   9.1743051e-05   9.6248457e-05   1.1054234e-04   1.6762831e-04   1.5127177e-04   1.4021808e-04   4.5944839e-06   2.0261363e-05   7.4261538e-05   0.0000000e+00   0.0000000e+00   0.0000000e+00   1.1813769e-04   0.0000000e+00   8.1760351e-05   1.8444910e-04   1.9604121e-04   1.1604857e-04   1.1295745e-04   6.8651360e-05   1.5834084e-04   4.8037269e-05   2.1315690e-04   1.0919767e-04   0.0000000e+00   7.2015761e-05   5.8395761e-05   6.9096295e-05   1.3908976e-05   1.7846327e-04   1.1047065e-04   1.6391523e-05   1.6615882e-04   1.3333968e-04   0.0000000e+00  -5.0614814e-05  -9.5266937e-05  -1.9410434e-05   1.1798842e-05  -5.0531785e-06  -4.7678384e-05  -1.2149381e-04  -5.2492614e-05   3.1337252e-05  -1.7752750e-05  -4.0660567e-05  -6.7797027e-05   0.0000000e+00   0.0000000e+00   0.0000000e+00  -6.8769850e-05   0.0000000e+00  -3.9396030e-06   5.3292610e-05  -4.9468642e-06  -6.3024060e-05  -6.5141667e-05  -5.6729866e-05  -5.9218527e-05   3.8519478e-05   8.0446575e-05  -1.2333475e-04   0.0000000e+00  -4.8381627e-05  -7.0199518e-05  -2.7867991e-07   6.1398177e-05   1.4791065e-05  -5.0500881e-05  -1.5519931e-05  -5.1981255e-05  -1.7141074e-04   0.0000000e+00  -6.1756609e-05  -8.9471042e-05  -1.8570237e-04   1.3761778e-04  -2.1608560e-04  -6.1134663e-05  -1.3265539e-04  -2.0863079e-05  -1.0595596e-04   1.2098886e-04   5.9653956e-05   3.9642998e-05   0.0000000e+00   0.0000000e+00   0.0000000e+00  -5.8484535e-05   0.0000000e+00  -7.2527986e-05  -7.9453654e-05  -1.0267475e-04  -1.0865157e-04  -8.6373481e-05  -8.9759887e-05  -7.0150921e-05   3.4380339e-04   2.9813553e-04  -9.1579515e-05   0.0000000e+00  -7.4326339e-05  -5.2930742e-05   1.5552781e-04   3.4981017e-04   1.0287276e-04  -5.7812145e-05  -7.1077812e-05  -6.7474590e-05  -1.2985515e-04   0.0000000e+00  -7.6724253e-05  -2.3229053e-05  -1.1203883e-04  -6.2505419e-05  -7.3583928e-05  -1.0027151e-04  -1.3494925e-04  -6.6639440e-05   3.9251222e-06  -6.7166641e-05  -1.0197950e-04  -7.5717664e-05   0.0000000e+00   0.0000000e+00   0.0000000e+00  -1.3014177e-04   0.0000000e+00  -6.2693526e-05  -1.3122397e-04  -1.0278502e-04  -1.3567509e-04  -1.3573658e-04  -1.1736627e-04  -9.1090891e-05  -1.0541458e-04  -5.4649888e-05  -1.0698150e-04   0.0000000e+00  -6.4862587e-05  -8.5120805e-05   1.2356571e-06  -1.9602102e-05  -4.1572208e-05  -1.4634707e-04  -1.0607792e-04  -1.7733677e-05  -4.0334516e-05   0.0000000e+00  -1.9452064e-04  -2.4598223e-05  -3.7813339e-04  -3.4331964e-04  -3.1991054e-04  -3.9050118e-04  -3.4846195e-04  -3.8705636e-04  -3.4313011e-04  -2.2814092e-04  -3.5255752e-04  -1.9918570e-04   0.0000000e+00   0.0000000e+00   0.0000000e+00  -3.3200452e-04   0.0000000e+00  -2.8291332e-04  -1.6621086e-04  -1.2870978e-04  -3.3157437e-04  -2.6489562e-04  -9.8744577e-05  -1.2811869e-04  -2.9745846e-04  -3.6249879e-04  -2.8535092e-04   0.0000000e+00  -7.5918775e-05  -1.5332861e-04  -2.8719100e-04  -1.4151661e-04   5.9151342e-05  -1.2107347e-04  -1.1388229e-04   2.7310680e-05  -1.1184662e-04   0.0000000e+00  -7.4364076e-05   1.0343512e-04   1.2074706e-04   1.3439481e-04  -4.2226583e-05  -5.7766716e-05  -1.0980029e-04  -4.8332634e-06  -5.2599547e-06   5.0673450e-05   7.2869539e-05  -8.9742004e-06   0.0000000e+00   0.0000000e+00   0.0000000e+00  -1.4068619e-04   0.0000000e+00  -1.0984506e-04  -3.2653271e-05  -2.2583382e-05  -1.3531291e-04  -7.9252047e-05   2.3426711e-05  -4.0530191e-05   3.9708832e-05   3.2119215e-05  -1.3701979e-04   0.0000000e+00  -6.3596616e-05  -2.0474323e-05   4.4740598e-05   6.2583586e-05   2.1305489e-04  -1.2221448e-03  -5.5966626e-04   6.4366675e-05  -2.5256213e-04   0.0000000e+00  -1.2897131e-04  -9.1156876e-04  -2.4650688e-04  -3.1184316e-04  -1.1329024e-04  -4.5475316e-04   5.1755085e-05  -4.1982494e-04  -7.6917082e-04  -2.8623777e-04  -4.2719082e-05  -7.8030893e-04   0.0000000e+00   0.0000000e+00   0.0000000e+00  -2.2271736e-04   0.0000000e+00  -4.6084309e-04   9.9214893e-05  -6.4862805e-05  -2.4421176e-04   6.0829917e-04  -1.4545642e-04   1.2451584e-04  -1.9351651e-05   4.7281695e-06   9.7995084e-04   0.0000000e+00  -3.0013099e-04   7.4358187e-05  -7.7523768e-04  -2.9165750e-04  -7.5805004e-04
   1.8517203e-05   4.1857879e-06  -5.9206792e-05  -8.9431806e-05   0.0000000e+00  -4.6752640e-05   1.3927018e-06  -4.7721409e-05  -1.5019785e-05  -2.2914061e-05  -2.0955593e-05  -4.4686926e-05  -9.0782756e-06   2.5249573e-05   1.9880757e-05  -9.5225135e-06  -2.0978213e-05   0.0000000e+00   0.0000000e+00   0.0000000e+00  -5.5613776e-05   0.0000000e+00  -2.6977784e-05  -2.9835289e-05  -4.3621658e-05  -7.1671181e-05  -6.9465123e-05  -4.9443866e-05  -2.5252670e-05   2.8253624e-05  -3.8839517e-06  -6.3121614e-05   0.0000000e+00  -1.6305392e-05  -5.3710256e-05  -3.0795367e-05   2.6484776e-06  -6.8879958e-06   9.5208628e-05   3.6097834e-05   1.3000355e-04   8.4556237e-05   0.0000000e+00   4.1600416e-05   2.7845547e-04   1.8105856e-04  -2.4267746e-05   2.7184464e-04   2.3723969e-04   1.6802852e-04   7.8088384e-05   1.4236979e-04  -2.9282461e-04  -1.0413295e-04   2.5610800e-05   0.0000000e+00   0.0000000e+00   0.0000000e+00   5.6244352e-05   0.0000000e+00   3.1003055e-05   3.5925347e-05   2.3537893e-05   4.9210532e-05  -1.5316400e-05   7.5966192e-05   4.9514119e-05  -3.1278906e-04  -1.6074913e-04   1.3317924e-05   0.0000000e+00   3.1396329e-05  -8.8029740e-05  -1.0149561e-04  -3.3064988e-05   2.5719632e-04   7.3976543e-04   6.2072264e-04   3.1005813e-04   4.1325628e-04   0.0000000e+00   1.5421063e-04   9.9677459e-04   6.7374101e-04   3.2594363e-04   3.3856670e-05   3.0588417e-06   1.8328907e-04   4.6875719e-04   8.7884712e-04  -6.7930761e-05   7.0382152e-05   3.1069432e-04   0.0000000e+00   0.0000000e+00   0.0000000e+00   2.4197314e-04   0.0000000e+00   7.2717279e-05   3.6424943e-05   3.2050258e-04  -7.1232818e-05  -2.4714085e-04   2.7383638e-05   2.1478179e-04  -1.1647844e-04   7.2719011e-04  -2.9210393e-04   0.0000000e+00   2.4804657e-05   1.2573428e-04   3.8517302e-04   4.7672123e-05   2.4394958e-03   1.9632556e-04   1.0620461e-04   3.0741872e-05   9.8856508e-05   0.0000000e+00  -8.2862728e-05   2.4021598e-05   2.3948403e-05  -4.7767097e-05  -7.4650634e-05  -8.3227935e-05  -1.9021634e-04   4.0401035e-05  -2.5674757e-05  -5.2614841e-05  -5.4047872e-05  -1.9356282e-06   0.0000000e+00   0.0000000e+00   0.0000000e+00  -7.8491833e-05   0.0000000e+00  -5.1280519e-05   5.7746742e-05  -2.3168434e-05  -8.7616091e-05  -5.0018277e-05  -2.4778043e-05  -2.6734707e-05   7.4459136e-06   3.5458161e-05  -9.4344617e-05   0.0000000e+00  -4.4177164e-05  -4.1283777e-05  -8.1943855e-06   3.5185738e-05   7.0147984e-05  -1.0777104e-04   1.4668617e-04   1.3486479e-04  -3.6095542e-05   0.0000000e+00   1.2655320e-04   1.4112527e-04   4.0742669e-05   9.7505064e-05   9.6920610e-05   1.2028465e-04   1.7675889e-04   1.4967753e-04   1.3774404e-04   3.9811104e-06   1.6286434e-05   7.9756312e-05   0.0000000e+00   0.0000000e+00   0.0000000e+00   1.3150512e-04   0.0000000e+00   8.9260281e-05   1.8379133e-04   1.9073712e-04   1.3047357e-04   1.2641394e-04   7.3565509e-05   1.6458493e-04   5.4127196e-05   2.2486205e-04   1.2165875e-04   0.0000000e+00   7.8208967e-05   6.8054762e-05   7.5910994e-05   1.3285699e-05   1.6660533e-04   9.0894938e-05   1.2101422e-05   1.6489353e-04   1.1686837e-04   0.0000000e+00  -5.0464143e-05  -8.4408566e-05  -8.9589619e-06   1.5978766e-05  -4.5791822e-06  -4.9090568e-05  -1.1875491e-04  -5.2820820e-05   4.1403672e-05  -1.2789836e-05  -3.9571563e-05  -6.3257250e-05   0.0000000e+00   0.0000000e+00   0.0000000e+00  -7.4208473e-05   0.0000000e+00  -7.3586484e-06   5.4809697e-05  -4.0945356e-06  -6.8229786e-05  -6.9959238e-05  -6.0655680e-05  -6.3743716e-05   3.2421112e-05   8.1702917e-05  -1.2569714e-04   0.0000000e+00  -5.2843095e-05  -7.9596704e-05  -9.5249213e-08   6.4560922e-05   1.5647096e-05  -6.1349625e-05  -2.4666855e-05  -6.5461853e-05  -1.8266722e-04   0.0000000e+00  -6.9605324e-05  -1.0695381e-04  -2.1038907e-04   1.1141437e-04  -2.2810241e-04  -7.2269986e-05  -1.4311781e-04  -3.2007915e-05  -1.3078200e-04   9.8368444e-05   3.1265091e-05   3.2454279e-05   0.0000000e+00   0.0000000e+00   0.0000000e+00  -6.3863505e-05   0.0000000e+00  -7.8713421e-05  -8.4181782e-05  -1.0938145e-04  -1.1636700e-04  -9.1704485e-05  -9.5659912e-05  -7.3015882e-05   3.5813961e-04   3.0949366e-04  -9.4401654e-05   0.0000000e+00  -8.0814330e-05  -5.7970396e-05   1.5892354e-04   3.5247180e-04   9.2378301e-05  -6.6968866e-05  -7.8723344e-05  -7.3416092e-05  -1.4545876e-04   0.0000000e+00  -8.2238191e-05  -3.0765590e-05  -1.1532048e-04  -6.4640279e-05  -8.4388861e-05  -1.1033857e-04  -1.4471989e-04  -7.8084913e-05   5.9017127e-06  -6.8037987e-05  -1.0872519e-04  -8.0655621e-05   0.0000000e+00   0.0000000e+00   0.0000000e+00  -1.3548021e-04   0.0000000e+00  -6.7004902e-05  -1.4409922e-04  -1.1784998e-04  -1.3891432e-04  -1.4324903e-04  -1.2719773e-04  -1.0097309e-04  -1.1716161e-04  -5.7546004e-05  -1.1240872e-04   0.0000000e+00  -6.8767337e-05  -9.2729339e-05   2.3659203e-06  -2.4969368e-05  -4.9811338e-05  -1.5756368e-04  -1.2501373e-04  -3.4210073e-05  -5.9329554e-05   0.0000000e+00  -2.1467862e-04  -4.5990557e-05  -3.6251804e-04  -4.0381685e-04  -3.4722144e-04  -4.3654398e-04  -3.8354672e-04  -4.2524931e-04  -4.1606399e-04  -2.1935883e-04  -3.6755920e-04  -1.9246173e-04   0.0000000e+00   0.0000000e+00   0.0000000e+00  -3.7305451e-04   0.0000000e+00  -3.1406146e-04  -1.8464515e-04  -1.3588498e-04  -3.6856141e-04  -2.8824795e-04  -1.0865508e-04  -1.4547242e-04  -3.4509016e-04  -4.0673222e-04  -3.1156514e-04   0.0000000e+00  -7.2031302e-05  -1.5429068e-04  -3.0557824e-04  -1.6336295e-04   1.6256650e-05  -1.1099011e-04  -1.1165111e-04   5.1469468e-05  -1.0243773e-04   0.0000000e+00  -7.3162454e-05   1.2668972e-04   1.3397830e-04   1.5477984e-04  -2.8059739e-05  -5.5040289e-05  -1.0498346e-04   4.3178685e-06   5.0173063e-06   5.9617116e-05   9.1397823e-05  -5.8438191e-07   0.0000000e+00   0.0000000e+00   0.0000000e+00  -1.4186601e-04   0.0000000e+00  -1.1093718e-04  -4.3549410e-05  -1.1432569e-05  -1.4326371e-04  -9.0523378e-05   1.8703326e-05  -4.7650268e-05   2.7569523e-05   3.3391795e-05  -1.3277911e-04   0.0000000e+00  -6.3686789e-05  -1.8759504e-05   6.3413077e-05   5.2910294e-05   2.4070430e-04  -1.2745547e-03  -5.5944836e-04   9.3448853e-05  -2.1354896e-04   0.0000000e+00  -8.1262394e-05  -9.5764328e-04  -2.3379153e-04  -2.8875031e-04  -8.1444772e-05  -4.3445546e-04   1.2863808e-04  -4.0158066e-04  -8.0115529e-04  -2.4295249e-04   1.1590136e-05  -7.8427579e-04   0.0000000e+00   0.0000000e+00   0.0000000e+00  -1.9933736e-04   0.0000000e+00  -4.7051485e-04   1.7721528e-04  -3.4997367e-05  -2.2258616e-04   7.2292417e-04  -1.0478257e-04   1.6488127e-04   2.4968186e-05   5.8393887e-05   1.1221340e-03   0.0000000e+00  -2.9626331e-04   1.1494984e-04  -7.8400266e-04  -2.5677810e-04  -7.9375025e-04
   1.7413993e-05   1.9382208e-07  -6.0980671e-05  -9.5818587e-05   0.0000000e+00  -5.0564659e-05   4.7071195e-06  -4.0984800e-05  -8.9946803e-06  -2.2971348e-05  -2.3090887e-05  -4.9762578e-05  -8.6164830e-06   3.1242543e-05   2.4737703e-05  -3.7478909e-06  -2.1764546e-05   0.0000000e+00   0.0000000e+00   0.0000000e+00  -6.3062603e-05   0.0000000e+00  -3.0617266e-05  -3.5973077e-05  -4.7417269e-05  -8.0151404e-05  -7.6363935e-05  -5.6399023e-05  -3.2061358e-05   3.1972473e-05   2.3232375e-07  -7.0912096e-05   0.0000000e+00  -2.0751917e-05  -5.8053843e-05  -2.7770021e-05   8.4640627e-06  -9.8649144e-06   8.1260358e-05   1.7269849e-05   1.2743150e-04   6.7318638e-05   0.0000000e+00   3.4139898e-05   2.8031035e-04   1.6095036e-04  -1.6682814e-05   2.8597787e-04   2.4843977e-04   1.7073635e-04   8.3066528e-05   1.5016269e-04  -3.0518284e-04  -9.7703259e-05   2.5983357e-05   0.0000000e+00   0.0000000e+00   0.0000000e+00   4.4288793e-05   0.0000000e+00   2.2590984e-05   1.8881599e-05   5.6017380e-06   4.1510139e-05  -2.2221661e-05   6.8075805e-05   3.8387035e-05  -3.0256818e-04  -1.5292151e-04   1.4394404e-05   0.0000000e+00   2.1731268e-05  -1.0503104e-04  -1.0614178e-04  -1.9568056e-05   2.4260508e-04   7.3457947e-04   6.1950531e-04   3.1313022e-04   3.9701737e-04   0.0000000e+00   1.5708591e-04   9.9597911e-04   6.6333165e-04   3.2324338e-04   4.4090683e-05   1.7533923e-05   2.0589162e-04   4.6699674e-04   8.8877638e-04  -6.7404156e-05   8.2216934e-05   3.1386837e-04   0.0000000e+00   0.0000000e+00   0.0000000e+00   2.4729484e-04   0.0000000e+00   7.5697016e-05   4.4035041e-05   3.2372835e-04  -5.8788486e-05  -2.3319398e-04   3.1569107e-05   2.3020378e-04  -9.0393553e-05   7.9060561e-04  -2.6490495e-04   0.0000000e+00   2.9014314e-05   1.3232085e-04   3.8090068e-04   5.4419904e-05   2.4711125e-03   1.8188356e-04   1.0404500e-04   1.5530149e-05   8.1201051e-05   0.0000000e+00  -8.2050001e-05   2.2764528e-05   2.7661357e-05  -6.1580903e-05  -7.9247199e-05  -8.7144782e-05  -1.8784796e-04   3.8369917e-05  -3.8247413e-05  -5.6740867e-05  -5.5611122e-05   1.7428396e-07   0.0000000e+00   0.0000000e+00   0.0000000e+00  -7.8333454e-05   0.0000000e+00  -5.7234642e-05   5.4405363e-05  -2.3290336e-05  -8.9007685e-05  -4.9851371e-05  -2.0844147e-05  -2.1424631e-05   4.5428809e-06   2.5976620e-05  -9.4656668e-05   0.0000000e+00  -4.2823794e-05  -4.0731206e-05  -8.8688014e-06   2.9500762e-05   6.6134537e-05  -9.3249733e-05   1.5731419e-04   1.3574215e-04  -2.6882052e-05   0.0000000e+00   1.3212467e-04   1.3205436e-04   4.2536035e-05   9.9839596e-05   9.6356742e-05   1.2762326e-04   1.8149092e-04   1.4546299e-04   1.3109497e-04   1.8788512e-06   1.0288123e-05   8.3844028e-05   0.0000000e+00   0.0000000e+00   0.0000000e+00   1.4125608e-04   0.0000000e+00   9.6437123e-05   1.8556438e-04   1.8620005e-04   1.4211235e-04   1.3865548e-04   7.7117643e-05   1.6941520e-04   5.9402140e-05   2.3332790e-04   1.3155034e-04   0.0000000e+00   8.3471821e-05   7.7181629e-05   8.1974827e-05   1.1951548e-05   1.5155050e-04   6.5250771e-05   5.9500886e-06   1.5983192e-04   9.5455626e-05   0.0000000e+00  -4.8238439e-05  -7.1530244e-05   2.7893040e-06   2.1995532e-05  -3.2659680e-06  -4.8960547e-05  -1.1153248e-04  -5.2698642e-05   5.2569182e-05  -5.7717859e-06  -3.5931853e-05  -5.7402721e-05   0.0000000e+00   0.0000000e+00   0.0000000e+00  -7.7180683e-05   0.0000000e+00  -1.0624873e-05   5.2900841e-05  -4.4794793e-06  -7.1350501e-05  -7.3597526e-05  -6.3610284e-05  -6.7773265e-05   2.7173445e-05   8.2498053e-05  -1.2520715e-04   0.0000000e+00  -5.6654759e-05  -8.8205703e-05   1.0385883e-06   6.7315240e-05   1.5721982e-05  -7.2413726e-05  -3.3134200e-05  -7.8420156e-05  -1.9064708e-04   0.0000000e+00  -7.6178393e-05  -1.2332220e-04  -2.3731094e-04   8.3223865e-05  -2.3642626e-04  -8.2547115e-05  -1.5041039e-04  -4.3287276e-05  -1.5462316e-04   7.5354043e-05   2.2755158e-06   2.4580056e-05   0.0000000e+00   0.0000000e+00   0.0000000e+00  -6.7895695e-05   0.0000000e+00  -8.3538463e-05  -8.7213875e-05  -1.1455692e-04  -1.2211844e-04  -9.4830022e-05  -1.0022763e-04  -7.3433540e-05   3.7221385e-04   3.2066439e-04  -9.4442946e-05   0.0000000e+00  -8.6627091e-05  -6.2646984e-05   1.6169220e-04   3.5395227e-04   8.1125259e-05  -7.6255615e-05  -8.6497836e-05  -7.9120962e-05  -1.6073594e-04   0.0000000e+00  -8.7786580e-05  -3.8306568e-05  -1.1893716e-04  -6.6773186e-05  -9.5591689e-05  -1.1991449e-04  -1.5410400e-04  -8.9668038e-05   7.0128858e-06  -6.9126280e-05  -1.1562403e-04  -8.5016897e-05   0.0000000e+00   0.0000000e+00   0.0000000e+00  -1.3992924e-04   0.0000000e+00  -7.0915847e-05  -1.5648253e-04  -1.3240161e-04  -1.4082220e-04  -1.4943657e-04  -1.3654881e-04  -1.1050303e-04  -1.2846699e-04  -5.9956443e-05  -1.1723876e-04   0.0000000e+00  -7.2278314e-05  -9.9678422e-05   3.7307163e-06  -3.0605050e-05  -5.8497389e-05  -1.7062111e-04  -1.4203347e-04  -4.9163956e-05  -8.3928613e-05   0.0000000e+00  -2.3070612e-04  -7.0557880e-05  -3.3685816e-04  -4.6059154e-04  -3.7210260e-04  -4.7917457e-04  -4.1253775e-04  -4.6061425e-04  -4.9328242e-04  -2.0621974e-04  -3.7909952e-04  -1.8276797e-04   0.0000000e+00   0.0000000e+00   0.0000000e+00  -4.0924488e-04   0.0000000e+00  -3.4225445e-04  -2.0144666e-04  -1.3765163e-04  -4.0340726e-04  -3.1030438e-04  -1.1904892e-04  -1.6301614e-04  -3.9135681e-04  -4.4976692e-04  -3.3504118e-04   0.0000000e+00  -6.5284430e-05  -1.5196543e-04  -3.2047226e-04  -1.8419992e-04  -2.8547741e-05  -1.0717733e-04  -1.1233874e-04   7.1810623e-05  -9.5240324e-05   0.0000000e+00  -7.2374048e-05   1.4033686e-04   1.4233439e-04   1.6559072e-04  -1.5192347e-05  -5.5476505e-05  -9.9503500e-05   7.4273654e-06   6.2637652e-06   6.5487562e-05   1.0590956e-04   3.8111355e-06   0.0000000e+00   0.0000000e+00   0.0000000e+00  -1.4226832e-04   0.0000000e+00  -1.1391098e-04  -5.4537343e-05  -1.6462897e-06  -1.5230623e-04  -9.8396357e-05   1.2990703e-05  -5.4720535e-05   1.9586386e-05   3.3121959e-05  -1.2288385e-04   0.0000000e+00  -6.5630355e-05  -1.9146945e-05   7.6682561e-05   4.2941556e-05   2.5847946e-04  -1.3194893e-03  -5.5513013e-04   1.1634568e-04  -1.7322729e-04   0.0000000e+00  -2.9397556e-05  -9.9282427e-04  -2.1050640e-04  -2.7025104e-04  -4.9352760e-05  -4.0881129e-04   2.0931683e-04  -3.7941742e-04  -8.2770219e-04  -1.9484300e-04   6.7752219e-05  -7.7951896e-04   0.0000000e+00   0.0000000e+00   0.0000000e+00  -1.7091322e-04   0.0000000e+00  -4.7647869e-04   2.6013819e-04  -4.6396353e-06  -1.9540298e-04   8.4008106e-04  -6.0114156e-05   2.0721037e-04   8.1449349e-05   1.2509271e-04   1.2629277e-03   0.0000000e+00  -2.8895904e-04   1.5650388e-04  -7.7760788e-04  -2.1646234e-04  -8.4008611e-04
   1.5841320e-05  -3.8692442e-06  -6.2356945e-05  -1.0189973e-04   0.0000000e+00  -5.3881609e-05   7.8284961e-06  -3.3197898e-05  -2.7872502e-06  -2.3218761e-05  -2.5012650e-05  -5.4470997e-05  -8.1701434e-06   3.7034173e-05   2.9394722e-05   2.1383036e-06  -2.2135512e-05   0.0000000e+00   0.0000000e+00   0.0000000e+00  -6.9862709e-05   0.0000000e+00  -3.4058833e-05  -4.2387089e-05  -5.1249872e-05  -8.7972793e-05  -8.2533895e-05  -6.3292432e-05  -3.9092831e-05   3.4823550e-05   4.4704958e-06  -7.7821241e-05   0.0000000e+00  -2.5097321e-05  -6.1934290e-05  -2.4550173e-05   1.4644464e-05  -1.2821977e-05   6.5575878e-05  -2.8698013e-06   1.2462213e-04   4.7744791e-05   0.0000000e+00   2.7054995e-05   2.7765557e-04   1.3687791e-04  -7.4097290e-06   2.9836326e-04   2.5873430e-04   1.7319066e-04   8.9802562e-05   1.5630266e-04  -3.1555892e-04  -8.8628533e-05   2.6634611e-05   0.0000000e+00   0.0000000e+00   0.0000000e+00   3.1642614e-05   0.0000000e+00   1.3655678e-05   2.0011628e-06  -1.3119940e-05   3.3982984e-05  -2.8092540e-05   5.9986905e-05   2.7063352e-05  -2.8503539e-04  -1.4101868e-04   1.6143764e-05   0.0000000e+00   1.1856508e-05  -1.2132097e-04  -1.0700436e-04  -2.1066047e-06   2.2252442e-04   7.2568767e-04   6.1785451e-04   3.1024818e-04   3.7681913e-04   0.0000000e+00   1.5971807e-04   9.8417838e-04   6.5025943e-04   3.1178666e-04   4.7313234e-05   2.6148424e-05   2.2156037e-04   4.5663381e-04   8.8714146e-04  -7.0278974e-05   8.6129653e-05   3.1386299e-04   0.0000000e+00   0.0000000e+00   0.0000000e+00   2.5222720e-04   0.0000000e+00   7.7956492e-05   5.1607582e-05   3.2612680e-04  -4.7862850e-05  -2.1733660e-04   3.7055306e-05   2.4366074e-04  -6.5336377e-05   8.3970401e-04  -2.4001035e-04   0.0000000e+00   3.4783675e-05   1.4178276e-04   3.8011986e-04   5.5378526e-05   2.4838967e-03   1.6858737e-04   1.0145641e-04   2.0188300e-07   6.5072619e-05   0.0000000e+00  -7.9925564e-05   2.1647085e-05   3.3176991e-05  -7.3351150e-05  -8.1414967e-05  -8.8709030e-05  -1.8256800e-04   3.7206728e-05  -4.9197964e-05  -5.8914291e-05  -5.4505982e-05   3.1476568e-06   0.0000000e+00   0.0000000e+00   0.0000000e+00  -7.6049963e-05   0.0000000e+00  -6.1486065e-05   5.0523409e-05  -2.2202360e-05  -8.8322330e-05  -4.7814203e-05  -1.5729941e-05  -1.5034729e-05   2.7638031e-06   1.7046957e-05  -9.2953807e-05   0.0000000e+00  -4.0378360e-05  -3.7554209e-05  -8.5034727e-06   2.3267063e-05   6.0901404e-05  -7.5334640e-05   1.6912227e-04   1.3702139e-04  -1.8540941e-05   0.0000000e+00   1.3483301e-04   1.1989558e-04   4.2310544e-05   9.8669149e-05   9.4721159e-05   1.3241219e-04   1.8207844e-04   1.3876835e-04   1.2067641e-04  -1.8144932e-06   2.3061153e-06   8.6307647e-05   0.0000000e+00   0.0000000e+00   0.0000000e+00   1.4690416e-04   0.0000000e+00   1.0296780e-04   1.9012271e-04   1.8321830e-04   1.5045364e-04   1.4920572e-04   7.9128782e-05   1.7288929e-04   6.3564047e-05   2.3836875e-04   1.3858402e-04   0.0000000e+00   8.7650602e-05   8.5241792e-05   8.7113491e-05   1.0002645e-05   1.3410040e-04   3.5044115e-05  -1.9240818e-06   1.5163163e-04   7.0887532e-05   0.0000000e+00  -4.3897920e-05  -5.7175080e-05   1.5549917e-05   2.9877798e-05  -1.0884661e-06  -4.7177144e-05  -9.9990436e-05  -5.2197030e-05   6.4713446e-05   2.9969949e-06  -2.9814739e-05  -5.0545431e-05   0.0000000e+00   0.0000000e+00   0.0000000e+00  -7.7338844e-05   0.0000000e+00  -1.3541990e-05   4.7331739e-05  -6.4221023e-06  -7.1994437e-05  -7.5894600e-05  -6.5302715e-05  -7.1175657e-05   2.3195331e-05   8.3093024e-05  -1.2187692e-04   0.0000000e+00  -5.9646288e-05  -9.5544245e-05   3.1950100e-06   6.9655533e-05   1.5083183e-05  -8.3471429e-05  -4.0456128e-05  -9.0752172e-05  -1.9514275e-04   0.0000000e+00  -8.1166294e-05  -1.3866445e-04  -2.6653445e-04   5.3500641e-05  -2.4078920e-04  -9.1408120e-05  -1.5415291e-04  -5.4616759e-05  -1.7709474e-04   5.2603980e-05  -2.6188083e-05   1.6322718e-05   0.0000000e+00   0.0000000e+00   0.0000000e+00  -7.0364324e-05   0.0000000e+00  -8.6805856e-05  -8.8325864e-05  -1.1799393e-04  -1.2559447e-04  -9.5348450e-05  -1.0320507e-04  -7.1172869e-05   3.8599484e-04   3.3021318e-04  -9.1409577e-05   0.0000000e+00  -9.1631009e-05  -6.6834771e-05   1.6368286e-04   3.5389934e-04   6.9799105e-05  -8.5605906e-05  -9.4349536e-05  -8.4403755e-05  -1.7531174e-04   0.0000000e+00  -9.3298904e-05  -4.5616962e-05  -1.2324497e-04  -6.8796586e-05  -1.0681484e-04  -1.2867266e-04  -1.6296028e-04  -1.0099849e-04   7.1604313e-06  -7.0546831e-05  -1.2255819e-04  -8.8672500e-05   0.0000000e+00   0.0000000e+00   0.0000000e+00  -1.4348039e-04   0.0000000e+00  -7.4355924e-05  -1.6809302e-04  -1.4604713e-04  -1.4149843e-04  -1.5418414e-04  -1.4530070e-04  -1.1948090e-04  -1.3916535e-04  -6.1837839e-05  -1.2136183e-04   0.0000000e+00  -7.5372418e-05  -1.0574712e-04   5.3137568e-06  -3.6295815e-05  -6.7416752e-05  -1.8702297e-04  -1.5721364e-04  -6.2739342e-05  -1.1432210e-04   0.0000000e+00  -2.4201501e-04  -9.8349657e-05  -3.0338591e-04  -5.1240464e-04  -3.9443443e-04  -5.1759522e-04  -4.3434589e-04  -4.9297085e-04  -5.7301209e-04  -1.8936464e-04  -3.8746862e-04  -1.7104070e-04   0.0000000e+00   0.0000000e+00   0.0000000e+00  -4.3938320e-04   0.0000000e+00  -3.6715892e-04  -2.1715258e-04  -1.3447038e-04  -4.3534082e-04  -3.3065225e-04  -1.3002642e-04  -1.8058134e-04  -4.3478762e-04  -4.9072190e-04  -3.5509488e-04   0.0000000e+00  -5.6096865e-05  -1.4685668e-04  -3.3192064e-04  -2.0342598e-04  -7.3893269e-05  -1.1206235e-04  -1.1725159e-04   8.6445364e-05  -9.1398211e-05   0.0000000e+00  -7.2417654e-05   1.4113311e-04   1.4389462e-04   1.6419495e-04  -4.8651388e-06  -6.0093120e-05  -9.4051369e-05   2.6319127e-06  -4.5655955e-06   6.7073750e-05   1.1473722e-04   3.0601812e-06   0.0000000e+00   0.0000000e+00   0.0000000e+00  -1.4241732e-04   0.0000000e+00  -1.1959223e-04  -6.4710732e-05   5.8782656e-06  -1.6265991e-04  -1.0169161e-04   6.7146872e-06  -6.1018603e-05   1.7621324e-05   3.0798600e-05  -1.0727662e-04   0.0000000e+00  -6.9897971e-05  -2.1978460e-05   8.2480597e-05   3.3308948e-05   2.6385785e-04  -1.3582775e-03  -5.4838055e-04   1.3049480e-04  -1.3432130e-04   0.0000000e+00   2.4802482e-05  -1.0168228e-03  -1.7514701e-04  -2.6056870e-04  -1.8549425e-05  -3.7989990e-04   2.9114061e-04  -3.5504522e-04  -8.4956845e-04  -1.4535246e-04   1.2309681e-04  -7.6782535e-04   0.0000000e+00   0.0000000e+00   0.0000000e+00  -1.3879827e-04   0.0000000e+00  -4.7948469e-04   3.4580374e-04   2.5170059e-05  -1.6385021e-04   9.5726562e-04  -1.3051983e-05   2.5090903e-04   1.4878886e-04   2.0289638e-04   1.3994347e-03   0.0000000e+00  -2.7886373e-04   1.9800691e-04  -7.5710226e-04  -1.7342150e-04  -8.9856581e-04
   1.3734060e-05  -7.9546004e-06  -6.3569561e-05  -1.0790305e-04   0.0000000e+00  -5.6758287e-05   1.0378822e-05  -2.4774950e-05   3.2222064e-06  -2.3918912e-05  -2.6886401e-05  -5.8906152e-05  -8.0164236e-06   4.2139188e-05   3.3773983e-05   7.8071289e-06  -2.2135669e-05   0.0000000e+00   0.0000000e+00   0.0000000e+00  -7.5928277e-05   0.0000000e+00  -3.7330077e-05  -4.9161029e-05  -5.5348768e-05  -9.5084524e-05  -8.8005987e-05  -7.0136888e-05  -4.6315654e-05   3.6720828e-05   8.5700402e-06  -8.3810300e-05   0.0000000e+00  -2.9280291e-05  -6.5441722e-05  -2.1317298e-05   2.1010934e-05  -1.5960410e-05   4.8573626e-05  -2.3553136e-05   1.2143749e-04   2.6135079e-05   0.0000000e+00   2.0799148e-05   2.7047571e-04   1.1072189e-04   2.4000127e-06   3.0861440e-04   2.6788283e-04   1.7559496e-04   9.7836112e-05   1.5970705e-04  -3.2397585e-04  -7.7506676e-05   2.7669617e-05   0.0000000e+00   0.0000000e+00   0.0000000e+00   1.8782699e-05   0.0000000e+00   4.2991260e-06  -1.4157551e-05  -3.2141663e-05   2.6882037e-05  -3.2630619e-05   5.2013994e-05   1.5948458e-05  -2.6098978e-04  -1.2608551e-04   1.8730570e-05   0.0000000e+00   2.2434313e-06  -1.3650546e-04  -1.0430691e-04   1.9026253e-05   1.9742670e-04   7.1449031e-04   6.1686018e-04   3.0131494e-04   3.5369173e-04   0.0000000e+00   1.6229836e-04   9.6222371e-04   6.3533612e-04   2.9113202e-04   4.2996263e-05   2.8041279e-05   2.2975924e-04   4.3809373e-04   8.7411720e-04  -7.7334092e-05   8.1178218e-05   3.1091132e-04   0.0000000e+00   0.0000000e+00   0.0000000e+00   2.5712764e-04   0.0000000e+00   7.9331328e-05   5.8915728e-05   3.2805982e-04  -3.9013044e-05  -1.9990608e-04   4.3629421e-05   2.5491042e-04  -4.2224327e-05   8.7352452e-04  -2.1809237e-04   0.0000000e+00   4.1893075e-05   1.5376795e-04   3.8324424e-04   5.0176333e-05   2.4810940e-03   1.5748978e-04   9.8943499e-05  -1.4384796e-05   5.1241605e-05   0.0000000e+00  -7.6601282e-05   2.0795365e-05   4.0170249e-05  -8.2308966e-05  -8.1000619e-05  -8.7817231e-05  -1.7468387e-04   3.7156573e-05  -5.8041238e-05  -5.8956421e-05  -5.0688219e-05   6.9157477e-06   0.0000000e+00   0.0000000e+00   0.0000000e+00  -7.1695467e-05   0.0000000e+00  -6.3750240e-05   4.6740663e-05  -1.9626566e-05  -8.5577891e-05  -4.3838729e-05  -9.6287077e-06  -7.7324353e-06   2.3627035e-06   9.4770850e-06  -8.9260346e-05   0.0000000e+00  -3.6925425e-05  -3.1792889e-05  -6.9791785e-06   1.6924738e-05   5.4781581e-05  -5.6175329e-05   1.8167022e-04   1.3874677e-04  -1.2280768e-05   0.0000000e+00   1.3486313e-04   1.0528945e-04   3.9891783e-05   9.4119109e-05   9.2209837e-05   1.3466056e-04   1.7905305e-04   1.2979347e-04   1.0710002e-04  -7.1038343e-06  -7.5260277e-06   8.6989132e-05   0.0000000e+00   0.0000000e+00   0.0000000e+00   1.4821383e-04   0.0000000e+00   1.0850686e-04   1.9745845e-04   1.8229920e-04   1.5516957e-04   1.5764474e-04   7.9485267e-05   1.7507846e-04   6.6342814e-05   2.3991669e-04   1.4264069e-04   0.0000000e+00   9.0634024e-05   9.1734163e-05   9.1156970e-05   7.5570012e-06   1.1511114e-04   2.1328649e-06  -1.1225732e-05   1.4116860e-04   4.5204262e-05   0.0000000e+00  -3.7513274e-05  -4.1939710e-05   2.9034650e-05   3.9557301e-05   1.9406451e-06  -4.3693944e-05  -8.4513595e-05  -5.1370834e-05   7.7658080e-05   1.3106464e-05  -2.1426313e-05  -4.3023955e-05   0.0000000e+00   0.0000000e+00   0.0000000e+00  -7.4455069e-05   0.0000000e+00  -1.5911403e-05   3.8187612e-05  -1.0114526e-05  -6.9869380e-05  -7.6739102e-05  -6.5467515e-05  -7.3818875e-05   2.0807286e-05   8.3744878e-05  -1.1584520e-04   0.0000000e+00  -6.1669455e-05  -1.0114358e-04   6.3824991e-06   7.1572379e-05   1.3862520e-05  -9.4323259e-05  -4.6237067e-05  -1.0240861e-04  -1.9606939e-04   0.0000000e+00  -8.4313494e-05  -1.5314418e-04  -2.9794671e-04   2.2700852e-05  -2.4105170e-04  -9.8312422e-05  -1.5412377e-04  -6.5886037e-05  -1.9788868e-04   3.0603989e-05  -5.3069292e-05   8.0140004e-06   0.0000000e+00   0.0000000e+00   0.0000000e+00  -7.1117462e-05   0.0000000e+00  -8.8362148e-05  -8.7352070e-05  -1.1949014e-04  -1.2656069e-04  -9.2919378e-05  -1.0437380e-04  -6.6127114e-05   3.9928386e-04   3.3656569e-04  -8.5106480e-05   0.0000000e+00  -9.5719109e-05  -7.0366142e-05   1.6471857e-04   3.5179666e-04   5.9054806e-05  -9.4968954e-05  -1.0220999e-04  -8.9072574e-05  -1.8882193e-04   0.0000000e+00  -9.8687130e-05  -5.2507634e-05  -1.2856917e-04  -7.0573739e-05  -1.1764667e-04  -1.3631410e-04  -1.7114667e-04  -1.1169592e-04   6.3049710e-06  -7.2355089e-05  -1.2937597e-04  -9.1512609e-05   0.0000000e+00   0.0000000e+00   0.0000000e+00  -1.4614903e-04   0.0000000e+00  -7.7269147e-05  -1.7866950e-04  -1.5844496e-04  -1.4108536e-04  -1.5743314e-04  -1.5334746e-04  -1.2771209e-04  -1.4912181e-04  -6.3170169e-05  -1.2467989e-04   0.0000000e+00  -7.8029763e-05  -1.1074875e-04   7.0798463e-06  -4.1811084e-05  -7.6344237e-05  -2.0800774e-04  -1.7082497e-04  -7.5275992e-05  -1.5017000e-04   0.0000000e+00  -2.4826842e-04  -1.2931329e-04  -2.6489981e-04  -5.5823720e-04  -4.1416391e-04  -5.5116100e-04  -4.4823284e-04  -5.2221300e-04  -6.5323905e-04  -1.6954274e-04  -3.9299592e-04  -1.5831047e-04   0.0000000e+00   0.0000000e+00   0.0000000e+00  -4.6257288e-04   0.0000000e+00  -3.8858019e-04  -2.3247761e-04  -1.2723156e-04  -4.6364791e-04  -3.4884695e-04  -1.4162157e-04  -1.9797813e-04  -4.7397653e-04  -5.2864538e-04  -3.7112552e-04   0.0000000e+00  -4.5074477e-05  -1.3959596e-04  -3.4012142e-04  -2.2046562e-04  -1.1843647e-04  -1.2765947e-04  -1.2752319e-04   9.3772744e-05  -9.1838741e-05   0.0000000e+00  -7.3660881e-05   1.2632502e-04   1.3688127e-04   1.4848634e-04   1.8058887e-06  -6.9693499e-05  -8.9318913e-05  -1.1591187e-05  -3.0095039e-05   6.3286905e-05   1.1643426e-04  -3.7049710e-06   0.0000000e+00   0.0000000e+00   0.0000000e+00  -1.4288179e-04   0.0000000e+00  -1.2866028e-04  -7.3080092e-05   1.0429213e-05  -1.7441193e-04  -9.9329891e-05   4.0311776e-07  -6.5756387e-05   2.3304720e-05   2.5959564e-05  -8.6172415e-05   0.0000000e+00  -7.6794431e-05  -2.7392682e-05   7.9096171e-05   2.4587094e-05   2.5481532e-04  -1.3923149e-03  -5.4087822e-04   1.3382541e-04  -9.9450163e-05   0.0000000e+00   7.9496055e-05  -1.0299545e-03  -1.2667768e-04  -2.6359193e-04   9.7172851e-06  -3.4972154e-04   3.7155709e-04  -3.3008939e-04  -8.6771847e-04  -9.8390297e-05   1.7487237e-04  -7.5125248e-04   0.0000000e+00   0.0000000e+00   0.0000000e+00  -1.0453180e-04   0.0000000e+00  -4.8032281e-04   4.3191883e-04   5.3530261e-05  -1.2933876e-04   1.0719712e-03   3.4707817e-05   2.9530843e-04   2.2484886e-04   2.8861066e-04   1.5290844e-03   0.0000000e+00  -2.6666297e-04   2.3853167e-04  -7.2457892e-04  -1.3071284e-04  -9.6931195e-04
   1.1043864e-05  -1.2028425e-05  -6.4859096e-05  -1.1406004e-04   0.0000000e+00  -5.9274033e-05   1.1995542e-05  -1.6158652e-05   8.6733547e-06  -2.5311314e-05  -2.8886604e-05  -6.3181539e-05  -8.4317076e-06   4.6076563e-05   3.7826399e-05   1.2950902e-05  -2.1823747e-05   0.0000000e+00   0.0000000e+00   0.0000000e+00  -8.1211860e-05   0.0000000e+00  -4.0469373e-05  -5.6367423e-05  -5.9929498e-05  -1.0146903e-04  -9.2844544e-05  -7.6946106e-05  -5.3692843e-05   3.7654214e-05   1.2297536e-05  -8.8890493e-05   0.0000000e+00  -3.3253545e-05  -6.8680521e-05  -1.8231745e-05   2.7379416e-05  -1.9509091e-05   3.0674042e-05  -4.3994532e-05   1.1765377e-04   2.8378368e-06   0.0000000e+00   1.5769542e-05   2.5897360e-04   8.4490985e-05   1.1513321e-05   3.1638466e-04   2.7567146e-04   1.7812567e-04   1.0651889e-04   1.5930199e-04  -3.3040427e-04  -6.5020341e-05   2.9209317e-05   0.0000000e+00   0.0000000e+00   0.0000000e+00   6.1737850e-06   0.0000000e+00  -5.3803930e-06  -2.9100172e-05  -5.0998799e-05   2.0440198e-05  -3.5573800e-05   4.4449131e-05   5.4316541e-06  -2.3145117e-04  -1.0930142e-04   2.2335353e-05   0.0000000e+00  -6.6461400e-06  -1.5024528e-04  -9.8496970e-05   4.3348648e-05   1.6794888e-04   7.0222515e-04   6.1728338e-04   2.8642574e-04   3.2863001e-04   0.0000000e+00   1.6493381e-04   9.3121256e-04   6.1916740e-04   2.6124844e-04   3.1084589e-05   2.2803579e-05   2.3040814e-04   4.1215255e-04   8.5028641e-04  -8.9137791e-05   6.6964198e-05   3.0532802e-04   0.0000000e+00   0.0000000e+00   0.0000000e+00   2.6222405e-04   0.0000000e+00   7.9668699e-05   6.5683154e-05   3.2974127e-04  -3.2615062e-05  -1.8120939e-04   5.0918883e-05   2.6380299e-04  -2.1751063e-05   8.9205877e-04  -1.9944153e-04   0.0000000e+00   5.0007580e-05   1.6761513e-04   3.9013804e-04   3.8884920e-05   2.4662103e-03   1.4935934e-04   9.6974146e-05  -2.7448510e-05   4.0231724e-05   0.0000000e+00  -7.2236271e-05   2.0281211e-05   4.8148525e-05  -8.7865670e-05  -7.8013967e-05  -8.4515532e-05  -1.6463501e-04   3.8368069e-05  -6.4483906e-05  -5.6809288e-05  -4.4297515e-05   1.1342796e-05   0.0000000e+00   0.0000000e+00   0.0000000e+00  -6.5416558e-05   0.0000000e+00  -6.3854420e-05   4.3683422e-05  -1.5352714e-05  -8.0883030e-05  -3.7968377e-05  -2.7786019e-06   2.7780622e-07   3.5246238e-06   3.9869045e-06  -8.3695841e-05   0.0000000e+00  -3.2594474e-05  -2.3645540e-05  -4.2445750e-06   1.0917220e-05   4.8155295e-05  -3.8047612e-05   1.9435249e-04   1.4080339e-04  -9.1773519e-06   0.0000000e+00   1.3253816e-04   8.8923629e-05   3.5224597e-05   8.6488225e-05   8.9027072e-05   1.3451090e-04   1.7314235e-04   1.1878475e-04   9.1117322e-05  -1.3891453e-05  -1.8994876e-05   8.5795136e-05   0.0000000e+00   0.0000000e+00   0.0000000e+00   1.4520168e-04   0.0000000e+00   1.1271810e-04   2.0720242e-04   1.8364382e-04   1.5612841e-04   1.6363920e-04   7.8141255e-05   1.7605694e-04   6.7515240e-05   2.3802223e-04   1.4375346e-04   0.0000000e+00   9.2354406e-05   9.6227402e-05   9.3956863e-05   4.7402537e-06   9.5422594e-05  -3.1455587e-05  -2.1513944e-05   1.2946497e-04   2.0520694e-05   0.0000000e+00  -2.9265622e-05  -2.6454580e-05   4.2953864e-05   5.0862323e-05   5.7744379e-06  -3.8537441e-05  -6.5706234e-05  -5.0256620e-05   9.1157807e-05   2.4059466e-05  -1.1097034e-05  -3.5182923e-05   0.0000000e+00   0.0000000e+00   0.0000000e+00  -6.8438063e-05   0.0000000e+00  -1.7541608e-05   2.5890384e-05  -1.5566425e-05  -6.4806399e-05  -7.6075510e-05  -6.3882310e-05  -7.5570934e-05   2.0218171e-05   8.4681795e-05  -1.0736968e-04   0.0000000e+00  -6.2607725e-05  -1.0458044e-04   1.0545228e-05   7.3051281e-05   1.2247414e-05  -1.0479416e-04  -5.0178049e-05  -1.1336300e-04  -1.9346039e-04   0.0000000e+00  -8.5429882e-05  -1.6695221e-04  -3.3125000e-04  -8.6870790e-06  -2.3720494e-04  -1.0276667e-04  -1.5026358e-04  -7.6944521e-05  -2.1676704e-04   9.6719889e-06  -7.7436949e-05   3.1748944e-09   0.0000000e+00   0.0000000e+00   0.0000000e+00  -7.0073988e-05   0.0000000e+00  -8.8103198e-05  -8.4200394e-05  -1.1885128e-04  -1.2487778e-04  -8.7280690e-05  -1.0357316e-04  -5.8336064e-05   4.1173180e-04   3.3821686e-04  -7.5446403e-05   0.0000000e+00  -9.8815022e-05  -7.3034611e-05   1.6462307e-04   3.4705395e-04   4.9483608e-05  -1.0429914e-04  -1.0999699e-04  -9.2943961e-05  -2.0093529e-04   0.0000000e+00  -1.0384502e-04  -5.8853955e-05  -1.3517713e-04  -7.1962132e-05  -1.2767111e-04  -1.4259378e-04  -1.7853095e-04  -1.2141491e-04   4.4617604e-06  -7.4546180e-05  -1.3590004e-04  -9.3460039e-05   0.0000000e+00   0.0000000e+00   0.0000000e+00  -1.4797472e-04   0.0000000e+00  -7.9624444e-05  -1.8798597e-04  -1.6932567e-04  -1.3976094e-04  -1.5919149e-04  -1.6059934e-04  -1.3502298e-04  -1.5824092e-04  -6.3960091e-05  -1.2713005e-04   0.0000000e+00  -8.0231202e-05  -1.1454571e-04   8.9827198e-06  -4.6921514e-05  -8.5066585e-05  -2.3432646e-04  -1.8326641e-04  -8.7233182e-05  -1.9054046e-04   0.0000000e+00  -2.4940058e-04  -1.6326903e-04  -2.2456627e-04  -5.9730194e-04  -4.3127874e-04  -5.7938857e-04  -4.5387368e-04  -5.4827400e-04  -7.3176947e-04  -1.4757131e-04  -3.9601370e-04  -1.4562706e-04   0.0000000e+00   0.0000000e+00   0.0000000e+00  -4.7825707e-04   0.0000000e+00  -4.0643394e-04  -2.4821380e-04  -1.1718654e-04  -4.8769318e-04  -3.6442800e-04  -1.5378405e-04  -2.1498094e-04  -5.0765011e-04  -5.6252737e-04  -3.8265974e-04   0.0000000e+00  -3.2972161e-05  -1.3088100e-04  -3.4538798e-04  -2.3477669e-04  -1.6087632e-04  -1.5542037e-04  -1.4403535e-04   9.2597990e-05  -9.7180138e-05   0.0000000e+00  -7.6388161e-05   9.3864764e-05   1.1978798e-04   1.1706523e-04   3.9230259e-06  -8.4793545e-05  -8.5935629e-05  -3.6284187e-05  -7.2286717e-05   5.3254291e-05   1.0989757e-04  -1.7011416e-05   0.0000000e+00   0.0000000e+00   0.0000000e+00  -1.4421058e-04   0.0000000e+00  -1.4158847e-04  -7.8661901e-05   1.1527654e-05  -1.8750698e-04  -9.0382297e-05  -5.3363722e-06  -6.8135800e-05   3.7906956e-05   1.8237707e-05  -6.0023271e-05   0.0000000e+00  -8.6434513e-05  -3.5305584e-05   6.5322027e-05   1.7246621e-05   2.2995925e-04  -1.4229731e-03  -5.3418844e-04   1.2493003e-04  -7.0977162e-05   0.0000000e+00   1.3291864e-04  -1.0331304e-03  -6.4621973e-05  -2.8256486e-04   3.4575482e-05  -3.2003292e-04   4.4824116e-04  -3.0596499e-04  -8.8326355e-04  -5.8103931e-05   2.2042094e-04  -7.3200600e-04   0.0000000e+00   0.0000000e+00   0.0000000e+00  -6.9738955e-05   0.0000000e+00  -4.7978703e-04   5.1620227e-04   7.9702254e-05  -9.3419900e-05   1.1818322e-03   8.1445053e-05   3.3968964e-04   3.0675843e-04   3.7793223e-04   1.6498168e-03   0.0000000e+00  -2.5305706e-04   2.7726383e-04  -6.8310599e-04  -9.1546903e-05  -1.0510149e-03
   7.7471771e-06  -1.6070069e-05  -6.6448945e-05  -1.2057144e-04   0.0000000e+00  -6.1521112e-05   1.2359630e-05  -7.7944329e-06   1.3254804e-05  -2.7588229e-05  -3.1173530e-05  -6.7410909e-05  -9.6674623e-06   4.8410738e-05   4.1529758e-05   1.7307155e-05  -2.1266266e-05   0.0000000e+00   0.0000000e+00   0.0000000e+00  -8.5700191e-05   0.0000000e+00  -4.3517152e-05  -6.4048110e-05  -6.5169243e-05  -1.0713329e-04  -9.7133451e-05  -8.3726498e-05  -6.1177074e-05   3.7691566e-05   1.5463086e-05  -9.3113163e-05   0.0000000e+00  -3.6982858e-05  -7.1753437e-05  -1.5420242e-05   3.3568834e-05  -2.3699152e-05   1.2289576e-05  -6.3438450e-05   1.1299714e-04  -2.1750761e-05   0.0000000e+00   1.2277322e-05   2.4357376e-04   6.0110329e-05   1.8751593e-05   3.2139403e-04   2.8193796e-04   1.8092143e-04   1.1507403e-04   1.5413770e-04  -3.3475394e-04  -5.1885173e-05   3.1390448e-05   0.0000000e+00   0.0000000e+00   0.0000000e+00  -5.7527858e-06   0.0000000e+00  -1.5277315e-05  -4.2406654e-05  -6.9262041e-05   1.4863288e-05  -3.6705794e-05   3.7552133e-05  -4.1131772e-06  -1.9758939e-04  -9.1873305e-05   2.7143441e-05   0.0000000e+00  -1.4380851e-05  -1.6226056e-04  -9.0202386e-05   7.0212555e-05   1.3486275e-04   6.8993430e-04   6.1954181e-04   2.6589292e-04   3.0254382e-04   0.0000000e+00   1.6764091e-04   8.9248178e-04   6.0215843e-04   2.2257678e-04   1.2029845e-05   1.0505813e-05   2.2384665e-04   3.7990564e-04   8.1664480e-04  -1.0597343e-04   4.3694172e-05   2.9749157e-04   0.0000000e+00   0.0000000e+00   0.0000000e+00   2.6758020e-04   0.0000000e+00   7.8855829e-05   7.1600298e-05   3.3122576e-04  -2.8843613e-05  -1.6156981e-04   5.8415278e-05   2.7027294e-04  -4.3605930e-06   8.9622143e-04  -1.8401964e-04   0.0000000e+00   5.8704421e-05   1.8242266e-04   4.0014807e-04   2.2030135e-05   2.4427949e-03   1.4468588e-04   9.5947662e-05  -3.8307264e-05   3.2338617e-05   0.0000000e+00  -6.7027097e-05   2.0115630e-05   5.6483253e-05  -8.9647940e-05  -7.2630155e-05  -7.8992342e-05  -1.5296973e-04   4.0881887e-05  -6.8426727e-05  -5.2545954e-05  -3.5651722e-05   1.6233025e-05   0.0000000e+00   0.0000000e+00   0.0000000e+00  -5.7443806e-05   0.0000000e+00  -6.1748062e-05   4.1914320e-05  -9.2653317e-06  -7.4435378e-05  -3.0363270e-05   4.5555349e-06   8.7656781e-06   6.3529950e-06   1.1616418e-06  -7.6471456e-05   0.0000000e+00  -2.7552621e-05  -1.3452829e-05  -3.2081787e-07   5.6585139e-06   4.1434741e-05  -2.3135354e-05   2.0645482e-04   1.4293839e-04  -1.0073464e-05   0.0000000e+00   1.2827517e-04   7.1475953e-05   2.8377509e-05   7.6212582e-05   8.5378026e-05   1.3221610e-04   1.6518415e-04   1.0601942e-04   7.3553304e-05  -2.1983141e-05  -3.1817793e-05   8.2704075e-05   0.0000000e+00   0.0000000e+00   0.0000000e+00   1.3811340e-04   0.0000000e+00   1.1529203e-04   2.1867405e-04   1.8713288e-04   1.5338233e-04   1.6695002e-04   7.5114997e-05   1.7589002e-04   6.6920533e-05   2.3284556e-04   1.4208826e-04   0.0000000e+00   9.2788257e-05   9.8389437e-05   9.5389437e-05   1.6812019e-06   7.5795599e-05  -6.3704968e-05  -3.2228282e-05   1.1760827e-04  -1.1354954e-06   0.0000000e+00  -1.9446163e-05  -1.1358305e-05   5.7018443e-05   6.3513392e-05   1.0333778e-05  -3.1810343e-05  -4.4373932e-05  -4.8872121e-05   1.0488714e-04   3.5295048e-05   7.3349511e-07  -2.7355252e-05   0.0000000e+00   0.0000000e+00   0.0000000e+00  -5.9341578e-05   0.0000000e+00  -1.8258996e-05   1.1170620e-05  -2.2582188e-05  -5.6774617e-05  -7.3904548e-05  -6.0388678e-05  -7.6310418e-05   2.1518638e-05   8.6080002e-05  -9.6813265e-05   0.0000000e+00  -6.2384513e-05  -1.0550625e-04   1.5566918e-05   7.4072047e-05   1.0471183e-05  -1.1473508e-04  -5.2092011e-05  -1.2359257e-04  -1.8745175e-04   0.0000000e+00  -8.4403196e-05  -1.8025966e-04  -3.6598247e-04  -4.0114562e-05  -2.2936938e-04  -1.0436587e-04  -1.4268284e-04  -8.7591938e-05  -2.3356412e-04  -1.0023107e-05  -9.8531034e-05  -7.3578307e-06   0.0000000e+00   0.0000000e+00   0.0000000e+00  -6.7219791e-05   0.0000000e+00  -8.5975752e-05  -7.8856902e-05  -1.1590472e-04  -1.2050145e-04  -7.8270858e-05  -1.0071113e-04  -4.7979272e-05   4.2286947e-04   3.3391490e-04  -6.2448478e-05   0.0000000e+00  -1.0087554e-04  -7.4606621e-05   1.6325355e-04   3.3908604e-04   4.1579187e-05  -1.1355560e-04  -1.1762032e-04  -9.5866558e-05  -2.1137350e-04   0.0000000e+00  -1.0866460e-04  -6.4605036e-05  -1.4325733e-04  -7.2839279e-05  -1.3649300e-04  -1.4734068e-04  -1.8500238e-04  -1.2987368e-04   1.7047009e-06  -7.7059019e-05  -1.4194245e-04  -9.4478928e-05   0.0000000e+00   0.0000000e+00   0.0000000e+00  -1.4902543e-04   0.0000000e+00  -8.1416075e-05  -1.9587101e-04  -1.7850445e-04  -1.3773356e-04  -1.5953698e-04  -1.6698704e-04  -1.4127131e-04  -1.6646723e-04  -6.4254714e-05  -1.2868859e-04   0.0000000e+00  -8.1963746e-05  -1.1705971e-04   1.0961027e-05  -5.1414620e-05  -9.3391857e-05  -2.6606241e-04  -1.9498640e-04  -9.9101738e-05  -2.3392702e-04   0.0000000e+00  -2.4561666e-04  -1.9988531e-04  -1.8568165e-04  -6.2904695e-04  -4.4577584e-04  -6.0197330e-04  -4.5137008e-04  -5.7109419e-04  -8.0630703e-04  -1.2430373e-04  -3.9682593e-04  -1.3398744e-04   0.0000000e+00   0.0000000e+00   0.0000000e+00  -4.8625017e-04   0.0000000e+00  -4.2071681e-04  -2.6510263e-04  -1.0582961e-04  -5.0695774e-04  -3.7693841e-04  -1.6636793e-04  -2.3133123e-04  -5.3473403e-04  -5.9133159e-04  -3.8939788e-04   0.0000000e+00  -2.0641530e-05  -1.2142480e-04  -3.4810096e-04  -2.4586107e-04  -1.9996653e-04  -1.9608614e-04  -1.6734753e-04   8.2229565e-05  -1.0769288e-04   0.0000000e+00  -8.0789727e-05   4.2606604e-05   9.1499722e-05   6.9356616e-05   8.7704037e-07  -1.0558466e-04  -8.4438537e-05  -7.1911183e-05  -1.3226159e-04   3.6381534e-05   9.4442622e-05  -3.6993217e-05   0.0000000e+00   0.0000000e+00   0.0000000e+00  -1.4691035e-04   0.0000000e+00  -1.5858729e-04  -8.0551147e-05   8.9986364e-06  -2.0172362e-04  -7.4155849e-05  -9.8618687e-06  -6.7420602e-05   6.2225054e-05   7.3658254e-06  -2.9504994e-05   0.0000000e+00  -9.8726298e-05  -4.5399928e-05   4.0583938e-05   1.1602120e-05   1.8861030e-04  -1.4515051e-03  -5.2966821e-04   1.0318307e-04  -5.0858306e-05   0.0000000e+00   1.8346783e-04  -1.0278174e-03   1.0878386e-05  -3.1979551e-04   5.5594312e-05  -2.9221674e-04   5.1926189e-04  -2.8379253e-04  -8.9738643e-04  -2.8582024e-05   2.5732112e-04  -7.1231771e-04   0.0000000e+00   0.0000000e+00   0.0000000e+00  -3.6042626e-05   0.0000000e+00  -4.7862562e-04   5.9649371e-04   1.0314676e-04  -5.7707625e-05   1.2847678e-03   1.2551065e-04   3.8329887e-04   3.9111596e-04   4.6571995e-04   1.7602280e-03   0.0000000e+00  -2.3872577e-04   3.1354426e-04  -6.3656213e-04  -5.9044865e-05  -1.1410495e-03
   3.8497768e-06  -2.0067751e-05  -6.8521822e-05  -1.2758450e-04   0.0000000e+00  -6.3592372e-05   1.1225839e-05  -1.0337821e-07   1.6729190e-05  -3.0874516e-05  -3.3872066e-05  -7.1692295e-05  -1.1923784e-05   4.8786616e-05   4.4887766e-05   2.0675349e-05  -2.0530220e-05   0.0000000e+00   0.0000000e+00   0.0000000e+00  -8.9407705e-05   0.0000000e+00  -4.6506795e-05  -7.2205600e-05  -7.1184572e-05  -1.1209843e-04  -1.0096135e-04  -9.0466574e-05  -6.8706255e-05   3.6970567e-05   1.7938458e-05  -9.6556076e-05   0.0000000e+00  -4.0444409e-05  -7.4748573e-05  -1.2969692e-05   3.9412614e-05  -2.8740458e-05  -6.1865777e-06  -8.1192575e-05   1.0718375e-04  -4.7193214e-05   0.0000000e+00   1.0533154e-05   2.2490584e-04   3.9240233e-05   2.3095412e-05   3.2345048e-04   2.8659091e-04   1.8407968e-04   1.2265671e-04   1.4349408e-04  -3.3689100e-04  -3.8789435e-05   3.4353382e-05   0.0000000e+00   0.0000000e+00   0.0000000e+00  -1.6622907e-05   0.0000000e+00  -2.5268977e-05  -5.3748454e-05  -8.6549709e-05   1.0330929e-05  -3.5862833e-05   3.1543532e-05  -1.2359798e-05  -1.6065828e-04  -7.4956604e-05   3.3333286e-05   0.0000000e+00  -2.0587574e-05  -1.7234253e-04  -8.0183477e-05   9.8834481e-05   9.9037096e-05   6.7843762e-04   6.2371809e-04   2.4027506e-04   2.7625065e-04   0.0000000e+00   1.7034079e-04   8.4758436e-04   5.8456295e-04   1.7607957e-04  -1.3239614e-05  -8.2800689e-06   2.1084515e-04   3.4273367e-04   7.7461314e-04  -1.2778768e-04   1.2202955e-05   2.8785705e-04   0.0000000e+00   0.0000000e+00   0.0000000e+00   2.7311701e-04   0.0000000e+00   7.6847229e-05   7.6340264e-05   3.3241606e-04  -2.7651608e-05  -1.4132498e-04   6.5514744e-05   2.7437608e-04   9.7517962e-06   8.8778656e-04  -1.7150330e-04   0.0000000e+00   6.7514826e-05   1.9711904e-04   4.1219335e-04   5.7304472e-07   2.4142181e-03   1.4370025e-04   9.6173450e-05  -4.6388076e-05   2.7666764e-05   0.0000000e+00  -6.1199936e-05   2.0251046e-05   6.4463326e-05  -8.7509161e-05  -6.5176628e-05  -7.1568328e-05  -1.4031195e-04   4.4636110e-05  -6.9942494e-05  -4.6371246e-05  -2.5225768e-05   2.1341171e-05   0.0000000e+00   0.0000000e+00   0.0000000e+00  -4.8081166e-05   0.0000000e+00  -5.7504964e-05   4.1892657e-05  -1.3623640e-06  -6.6505150e-05  -2.1293604e-05   1.2100241e-05   1.7488740e-05   1.0859320e-05   1.4187587e-06  -6.7883689e-05   0.0000000e+00  -2.1993539e-05  -1.6738780e-06   4.6948966e-06   1.5013759e-06   3.5047207e-05  -1.3316864e-05   2.1721002e-04   1.4479082e-04  -1.5498522e-05   0.0000000e+00   1.2254675e-04   5.3557934e-05   1.9544181e-05   6.3828096e-05   8.1450127e-05   1.2810399e-04   1.5604111e-04   9.1786029e-05   5.5229705e-05  -3.1096530e-05  -4.5662475e-05   7.7761376e-05   0.0000000e+00   0.0000000e+00   0.0000000e+00   1.2738408e-04   0.0000000e+00   1.1597777e-04   2.3093703e-04   1.9235556e-04   1.4715197e-04   1.6745170e-04   7.0476042e-05   1.7462360e-04   6.4480606e-05   2.2464972e-04   1.3791170e-04   0.0000000e+00   9.1954546e-05   9.8010454e-05   9.5370005e-05  -1.4976494e-06   5.6854440e-05  -9.2752997e-05  -4.2730019e-05   1.0667264e-04  -1.7963184e-05   0.0000000e+00  -8.4457904e-06   2.7279558e-06   7.0942787e-05   7.7130067e-05   1.5513530e-05  -2.3691897e-05  -2.1499935e-05  -4.7218398e-05   1.1844726e-04   4.6220683e-05   1.3537562e-05  -1.9845273e-05   0.0000000e+00   0.0000000e+00   0.0000000e+00  -4.7370562e-05   0.0000000e+00  -1.7921685e-05  -5.0161803e-06  -3.0770695e-05  -4.5891667e-05  -7.0286543e-05  -5.4905430e-05  -7.5932457e-05   2.4679475e-05   8.8049965e-05  -8.4627789e-05   0.0000000e+00  -6.0971031e-05  -1.0367278e-04   2.1278623e-05   7.4609957e-05   8.7987140e-06  -1.2401851e-04  -5.1907684e-05  -1.3305115e-04  -1.7826974e-04   0.0000000e+00  -8.1199871e-05  -1.9318136e-04  -4.0155192e-04  -7.0971776e-05  -2.1779926e-04  -1.0282633e-04  -1.3164909e-04  -9.7575205e-05  -2.4817105e-04  -2.8429190e-05  -1.1579920e-04  -1.3726514e-05   0.0000000e+00   0.0000000e+00   0.0000000e+00  -6.2619096e-05   0.0000000e+00  -8.1985625e-05  -7.1390972e-05  -1.1051645e-04  -1.1349237e-04  -6.5839604e-05  -9.5779248e-05  -3.5374040e-05   4.3214149e-04   3.2283105e-04  -4.6238777e-05   0.0000000e+00  -1.0188737e-04  -7.4835178e-05   1.6052467e-04   3.2740172e-04   3.5711514e-05  -1.2268852e-04  -1.2498152e-04  -9.7736937e-05  -2.1993321e-04   0.0000000e+00  -1.1303873e-04  -6.9786843e-05  -1.5290748e-04  -7.3118984e-05  -1.4376439e-04  -1.5046714e-04  -1.9047817e-04  -1.3687653e-04  -1.8440692e-06  -7.9778907e-05  -1.4731702e-04  -9.4578136e-05   0.0000000e+00   0.0000000e+00   0.0000000e+00  -1.4939573e-04   0.0000000e+00  -8.2663378e-05  -2.0221378e-04  -1.8589529e-04  -1.3522811e-04  -1.5861613e-04  -1.7246367e-04  -1.4634484e-04  -1.7378264e-04  -6.4143454e-05  -1.2938220e-04   0.0000000e+00  -8.3218403e-05  -1.1828392e-04   1.2941857e-05  -5.5113094e-05  -1.0117051e-04  -3.0253470e-04  -2.0639684e-04  -1.1130346e-04  -2.7831598e-04   0.0000000e+00  -2.3738304e-04  -2.3867397e-04  -1.5142532e-04  -6.5315476e-04  -4.5763351e-04  -6.1877563e-04  -4.4126516e-04  -5.9058789e-04  -8.7454206e-04  -1.0059360e-04  -3.9569254e-04  -1.2427070e-04   0.0000000e+00   0.0000000e+00   0.0000000e+00  -4.8674608e-04   0.0000000e+00  -4.3147422e-04  -2.8369988e-04  -9.4762801e-05  -5.2105881e-04  -3.8595805e-04  -1.7913593e-04  -2.4672674e-04  -5.5440826e-04  -6.1404126e-04  -3.9125520e-04   0.0000000e+00  -8.9654832e-06  -1.1190472e-04  -3.4866558e-04  -2.5327005e-04  -2.3453156e-04  -2.4963120e-04  -1.9765628e-04   6.2539225e-05  -1.2325751e-04   0.0000000e+00  -8.6937490e-05  -2.7607464e-05   5.1390307e-05   5.6898765e-06  -7.6116056e-06  -1.3189021e-04  -8.5227735e-05  -1.1832653e-04  -2.1018596e-04   1.2405741e-05   6.9873823e-05  -6.3376938e-05   0.0000000e+00   0.0000000e+00   0.0000000e+00  -1.5139256e-04   0.0000000e+00  -1.7957585e-04  -7.7989617e-05   2.9885644e-06  -2.1669045e-04  -5.0210615e-05  -1.2543081e-05  -6.2997169e-05   9.6502818e-05  -6.7917548e-06   4.5540692e-06   0.0000000e+00  -1.1337470e-04  -5.7152316e-05   5.0010529e-06   7.7835066e-06   1.3083792e-04  -1.4789978e-03  -5.2837866e-04   6.8802958e-05  -4.0516256e-05   0.0000000e+00   2.2980197e-04  -1.0159185e-03   9.9069025e-05  -3.7645321e-04   7.2818730e-05  -2.6721205e-04   5.8320709e-04  -2.6431154e-04  -9.1126593e-04  -1.3531648e-05   2.8357070e-04  -6.9430388e-04   0.0000000e+00   0.0000000e+00   0.0000000e+00  -4.9555941e-06   0.0000000e+00  -4.7751343e-04   6.7088531e-04   1.2354304e-04  -2.3786475e-05   1.3791175e-03   1.6540358e-04   4.2537052e-04   4.7422866e-04   5.4637495e-04   1.8596798e-03   0.0000000e+00  -2.2429595e-04   3.4689952e-04  -5.8939742e-04  -3.5992178e-05  -1.2357145e-03
  -6.0768172e-07  -2.4014716e-05  -7.1201330e-05  -1.3517037e-04   0.0000000e+00  -6.5570591e-05   8.4418965e-06   6.5439459e-06   1.8953424e-05  -3.5210828e-05  -3.7056224e-05  -7.6091444e-05  -1.5329705e-05   4.6964515e-05   4.7926221e-05   2.2934261e-05  -1.9677432e-05   0.0000000e+00   0.0000000e+00   0.0000000e+00  -9.2368478e-05   0.0000000e+00  -4.9457887e-05  -8.0789150e-05  -7.8011883e-05  -1.1639301e-04  -1.0440971e-04  -9.7130775e-05  -7.6197585e-05   3.5687250e-05   1.9661709e-05  -9.9311916e-05   0.0000000e+00  -4.3622935e-05  -7.7727659e-05  -1.0922233e-05   4.4765997e-05  -3.4796217e-05  -2.4388863e-05  -9.6667054e-05   9.9964447e-05  -7.3008664e-05   0.0000000e+00   1.0628543e-05   2.0377881e-04   2.3137234e-05   2.3788637e-05   3.2247101e-04   2.8961514e-04   1.8763802e-04   1.2842174e-04   1.2697227e-04  -3.3666277e-04  -2.6356667e-05   3.8235426e-05   0.0000000e+00   0.0000000e+00   0.0000000e+00  -2.6136378e-05   0.0000000e+00  -3.5213168e-05  -6.2890111e-05  -1.0253625e-04   6.9896354e-06  -3.2940721e-05   2.6599889e-05  -1.9039496e-05  -1.2193500e-04  -5.9573355e-05   4.1059377e-05   0.0000000e+00  -2.4967059e-05  -1.8035359e-04  -6.9279454e-05   1.2833954e-04   6.1394753e-05   6.6832434e-04   6.2958993e-04   2.1038575e-04   2.5047308e-04   0.0000000e+00   1.7287165e-04   7.9828387e-04   5.6653441e-04   1.2327312e-04  -4.3342288e-05  -3.2518554e-05   1.9254295e-04   3.0226157e-04   7.2601905e-04  -1.5414905e-04  -2.6068466e-05   2.7696246e-04   0.0000000e+00   0.0000000e+00   0.0000000e+00   2.7860780e-04   0.0000000e+00   7.3701279e-05   7.9602381e-05   3.3308778e-04  -2.8772658e-05  -1.2086968e-04   7.1569331e-05   2.7628268e-04   2.0624580e-05   8.6925732e-04  -1.6136365e-04   0.0000000e+00   7.5963904e-05   2.1057142e-04   4.2489157e-04  -2.4153337e-05   2.3834879e-03   1.4640479e-04   9.7858427e-05  -5.1229929e-05   2.6175035e-05   0.0000000e+00  -5.4998590e-05   2.0593937e-05   7.1357884e-05  -8.1523548e-05  -5.6110191e-05  -6.2671294e-05  -1.2732042e-04   4.9476645e-05  -6.9243146e-05  -3.8610035e-05  -1.3613169e-05   2.6392872e-05   0.0000000e+00   0.0000000e+00   0.0000000e+00  -3.7688362e-05   0.0000000e+00  -5.1318096e-05   4.3953229e-05   8.2397046e-06  -5.7423849e-05  -1.1127688e-05   1.9592187e-05   2.6204719e-05   1.6959603e-05   4.9912451e-06  -5.8300830e-05   0.0000000e+00  -1.6125974e-05   1.1144829e-05   1.0636083e-05  -1.2869527e-06   2.9421296e-05  -9.9751065e-06   2.2587135e-04   1.4593249e-04  -2.5628123e-05   0.0000000e+00   1.1582526e-04   3.5677120e-05   9.0315165e-06   4.9920426e-05   7.7412638e-05   1.2253888e-04   1.4651109e-04   7.6376852e-05   3.6907940e-05  -4.0880918e-05  -6.0160979e-05   7.1081022e-05   0.0000000e+00   0.0000000e+00   0.0000000e+00   1.1359230e-04   0.0000000e+00   1.1459982e-04   2.4288976e-04   1.9864972e-04   1.3779174e-04   1.6513372e-04   6.4338917e-05   1.7227954e-04   6.0203505e-05   2.1379123e-04   1.3155468e-04   0.0000000e+00   8.9909475e-05   9.5009555e-05   9.3866719e-05  -4.6816875e-06   3.9052480e-05  -1.1699685e-04  -5.2347305e-05   9.7641078e-05  -2.8495068e-05   0.0000000e+00   3.2588500e-06   1.5234438e-05   8.4448013e-05   9.1245952e-05   2.1187388e-05  -1.4437450e-05   1.7953087e-06  -4.5284668e-05   1.3138184e-04   5.6245314e-05   2.6729881e-05  -1.2913142e-05   0.0000000e+00   0.0000000e+00   0.0000000e+00  -3.2878407e-05   0.0000000e+00  -1.6429959e-05  -2.1593409e-05  -3.9592357e-05  -3.2425300e-05  -6.5335740e-05  -4.7441901e-05  -7.4358394e-05   2.9557895e-05   9.0627366e-05  -7.1330047e-05   0.0000000e+00  -5.8391103e-05  -9.8953262e-05   2.7468893e-05   7.4641629e-05   7.5106019e-06  -1.3253616e-04  -4.9666298e-05  -1.4165628e-04  -1.6621548e-04   0.0000000e+00  -7.5871251e-05  -2.0575191e-04  -4.3728442e-04  -1.0059261e-04  -2.0286848e-04  -9.8009737e-05  -1.1756914e-04  -1.0660240e-04  -2.6054304e-04  -4.5587446e-05  -1.2893042e-04  -1.8789887e-05   0.0000000e+00   0.0000000e+00   0.0000000e+00  -5.6393527e-05   0.0000000e+00  -7.6193484e-05  -6.1949729e-05  -1.0260714e-04  -1.0400729e-04  -5.0060835e-05  -8.8851698e-05  -2.0955711e-05   4.3896522e-04   3.0466007e-04  -2.7048274e-05   0.0000000e+00  -1.0186696e-04  -7.3489316e-05   1.5642581e-04   3.1167109e-04   3.2120916e-05  -1.3163891e-04  -1.3198472e-04  -9.8511938e-05  -2.2649648e-04   0.0000000e+00  -1.1687146e-04  -7.4499354e-05  -1.6412147e-04  -7.2774600e-05  -1.4920340e-04  -1.5198393e-04  -1.9490717e-04  -1.4232361e-04  -6.0255216e-06  -8.2550339e-05  -1.5184900e-04  -9.3815667e-05   0.0000000e+00   0.0000000e+00   0.0000000e+00  -1.4920903e-04   0.0000000e+00  -8.3415073e-05  -2.0697730e-04  -1.9150889e-04  -1.3247762e-04  -1.5664075e-04  -1.7700754e-04  -1.5017293e-04  -1.8020612e-04  -6.3766453e-05  -1.2929193e-04   0.0000000e+00  -8.3988854e-05  -1.1828158e-04   1.4846952e-05  -5.7888950e-05  -1.0830119e-04  -3.4229851e-04  -2.1779520e-04  -1.2410198e-04  -3.2130741e-04   0.0000000e+00  -2.2539442e-04  -2.7898433e-04  -1.2459624e-04  -6.6953639e-04  -4.6678921e-04  -6.2982131e-04  -4.2451737e-04  -6.0662968e-04  -9.3427225e-04  -7.7263278e-05  -3.9282371e-04  -1.1717933e-04   0.0000000e+00   0.0000000e+00   0.0000000e+00  -4.8030417e-04   0.0000000e+00  -4.3877566e-04  -3.0424727e-04  -8.5534252e-05  -5.2977667e-04  -3.9114190e-04  -1.9176587e-04  -2.6082994e-04  -5.6615240e-04  -6.2972588e-04  -3.8838620e-04   0.0000000e+00   1.2059876e-06  -1.0291861e-04  -3.4746796e-04  -2.5662839e-04  -2.6348966e-04  -3.1523833e-04  -2.3477323e-04   3.3972385e-05  -1.4339779e-04   0.0000000e+00  -9.4790591e-05  -1.1590299e-04  -6.1369792e-07  -7.2720674e-05  -2.1463671e-05  -1.6318565e-04  -8.8543335e-05  -1.7474938e-04  -3.0521515e-04  -1.8584091e-05   3.6506980e-05  -9.5509338e-05   0.0000000e+00   0.0000000e+00   0.0000000e+00  -1.5795364e-04   0.0000000e+00  -2.0417679e-04  -7.0453355e-05  -6.0367480e-06  -2.3188306e-04  -1.8406938e-05  -1.2804353e-05  -5.4439755e-05   1.4037675e-04  -2.4254038e-05   4.1214418e-05   0.0000000e+00  -1.2989607e-04  -6.9856990e-05  -4.0592375e-05   5.7059242e-06   5.7429292e-05  -1.5063320e-03  -5.3102772e-04   2.2840541e-05  -4.0758964e-05   0.0000000e+00   2.7091581e-04  -9.9963966e-04   1.9859132e-04  -4.5243210e-04   8.6761793e-05  -2.4545028e-04   6.3926940e-04  -2.4783880e-04  -9.2598830e-04  -1.5947775e-05   2.9775527e-04  -6.7983491e-04   0.0000000e+00   0.0000000e+00   0.0000000e+00   2.2195406e-05   0.0000000e+00  -4.7702237e-04   7.3783064e-04   1.4077204e-04   6.8745773e-06   1.4637427e-03   1.9984967e-04   4.6515161e-04   5.5241961e-04   6.1431464e-04   1.9483334e-03   0.0000000e+00  -2.1032205e-04   3.7704704e-04  -5.4632038e-04  -2.4596722e-05  -1.3305749e-03
  -5.5497378e-06  -2.7903606e-05  -7.4538355e-05  -1.4330957e-04   0.0000000e+00  -6.7518296e-05   3.9659830e-06   1.1846662e-05   1.9888806e-05  -4.0545552e-05  -4.0735201e-05  -8.0630314e-05  -1.9926921e-05   4.2839716e-05   5.0687719e-05   2.4047612e-05  -1.8759215e-05   0.0000000e+00   0.0000000e+00   0.0000000e+00  -9.4629689e-05   0.0000000e+00  -5.2369729e-05  -8.9690820e-05  -8.5598954e-05  -1.2004366e-04  -1.0753928e-04  -1.0365443e-04  -8.3548383e-05   3.4080494e-05   2.0645694e-05  -1.0147467e-04   0.0000000e+00  -4.6508535e-05  -8.0717007e-05  -9.2754239e-06   4.9513737e-05  -4.1962168e-05  -4.1987030e-05  -1.0941123e-04   9.1162006e-05  -9.8693561e-05   0.0000000e+00   1.2532941e-05   1.8113116e-04   1.2580009e-05   2.0395627e-05   3.1849067e-04   2.9108275e-04   1.9157810e-04   1.3159713e-04   1.0454239e-04  -3.3392040e-04  -1.5095660e-05   4.3157817e-05   0.0000000e+00   0.0000000e+00   0.0000000e+00  -3.4087538e-05   0.0000000e+00  -4.4942434e-05  -6.9701054e-05  -1.1696309e-04   4.9461435e-06  -2.7908565e-05   2.2849014e-05  -2.3962592e-05  -8.2665918e-05  -4.6560917e-05   5.0433999e-05   0.0000000e+00  -2.7310496e-05  -1.8623067e-04  -5.8349116e-05   1.5780347e-04   2.2863521e-05   6.5998957e-04   6.3670602e-04   1.7731617e-04   2.2585689e-04   0.0000000e+00   1.7500122e-04   7.4651797e-04   5.4820825e-04   6.6210632e-05  -7.6521237e-05  -6.0744031e-05   1.7041161e-04   2.6025767e-04   6.7305510e-04  -1.8422000e-04  -6.9110412e-05   2.6542789e-04   0.0000000e+00   0.0000000e+00   0.0000000e+00   2.8371391e-04   0.0000000e+00   6.9602790e-05   8.1140606e-05   3.3295300e-04  -3.1742122e-05  -1.0065715e-04   7.5938709e-05   2.7629597e-04   2.8497981e-05   8.4368623e-04  -1.5295415e-04   0.0000000e+00   8.3616105e-05   2.2168953e-04   4.3671087e-04  -5.0518031e-05   2.3530828e-03   1.5260407e-04   1.0110338e-04  -5.2484015e-05   2.7719789e-05   0.0000000e+00  -4.8673902e-05   2.1021705e-05   7.6486578e-05  -7.1961549e-05  -4.5979754e-05  -5.2805284e-05  -1.1464795e-04   5.5177340e-05  -6.6628744e-05  -2.9682964e-05  -1.4777625e-06   3.1103901e-05   0.0000000e+00   0.0000000e+00   0.0000000e+00  -2.6663293e-05   0.0000000e+00  -4.3483090e-05   4.8295929e-05   1.9315436e-05  -4.7566226e-05  -3.1076679e-07   2.6796225e-05   3.4686223e-05   2.4472481e-05   1.1925492e-05  -4.8146486e-05   0.0000000e+00  -1.0160086e-05   2.4405052e-05   1.7275045e-05  -2.5415038e-06   2.4974267e-05  -1.3859768e-05   2.3176991e-04   1.4592106e-04  -4.0267455e-05   0.0000000e+00   1.0855310e-04   1.8210358e-05  -2.7565357e-06   3.5087660e-05   7.3400325e-05   1.1589291e-04   1.3726859e-04   6.0075811e-05   1.9228768e-05  -5.0936380e-05  -7.4932578e-05   6.2839853e-05   0.0000000e+00   0.0000000e+00   0.0000000e+00   9.7396014e-05   0.0000000e+00   1.1107651e-04   2.5337092e-04   2.0517538e-04   1.2575516e-04   1.6009783e-04   5.6841549e-05   1.6885975e-04   5.4195735e-05   2.0070313e-04   1.2337819e-04   0.0000000e+00   8.6739690e-05   8.9441639e-05   9.0906671e-05  -7.7660430e-06   2.2646406e-05  -1.3516531e-04  -6.0425842e-05   9.1334779e-05  -3.1675643e-05   0.0000000e+00   1.5134668e-05   2.5678007e-05   9.7272287e-05   1.0533301e-04   2.7215659e-05  -4.3675558e-06   2.4316761e-05  -4.3055307e-05   1.4320985e-04   6.4821696e-05   3.9704348e-05  -6.7659593e-06   0.0000000e+00   0.0000000e+00   0.0000000e+00  -1.6360284e-05   0.0000000e+00  -1.3738990e-05  -3.7477403e-05  -4.8433788e-05  -1.6787182e-05  -5.9215780e-05  -3.8102698e-05  -7.1542787e-05   3.5910465e-05   9.3773482e-05  -5.7480343e-05   0.0000000e+00  -5.4723183e-05  -9.1355601e-05   3.3898536e-05   7.4147121e-05   6.8885041e-06  -1.4019579e-04  -4.5509838e-05  -1.4928004e-04  -1.5165212e-04   0.0000000e+00  -6.8549281e-05  -2.1791110e-04  -4.7247885e-04  -1.2828515e-04  -1.8506973e-04  -8.9948618e-05  -1.0096790e-04  -1.1435660e-04  -2.7068880e-04  -6.1594086e-05  -1.3786165e-04  -2.2282712e-05   0.0000000e+00   0.0000000e+00   0.0000000e+00  -4.8725303e-05   0.0000000e+00  -6.8721806e-05  -5.0756806e-05  -9.2174621e-05  -9.2291576e-05  -3.1140477e-05  -8.0088368e-05  -5.2564701e-06   4.4277605e-04   2.7966545e-04  -5.1993136e-06   0.0000000e+00  -1.0085353e-04  -7.0372667e-05   1.5102813e-04   2.9177775e-04   3.0893599e-05  -1.4032682e-04  -1.3854176e-04  -9.8221139e-05  -2.3104736e-04   0.0000000e+00  -1.2008442e-04  -7.8900780e-05  -1.7679121e-04  -7.1838425e-05  -1.5260930e-04  -1.5198995e-04  -1.9827333e-04  -1.4622196e-04  -1.0649429e-05  -8.5190785e-05  -1.5538887e-04  -9.2297162e-05   0.0000000e+00   0.0000000e+00   0.0000000e+00  -1.4861157e-04   0.0000000e+00  -8.3739880e-05  -2.1020013e-04  -1.9544999e-04  -1.2970950e-04  -1.5387547e-04  -1.8062345e-04  -1.5272963e-04  -1.8579089e-04  -6.3306693e-05  -1.2855077e-04   0.0000000e+00  -8.4275772e-05  -1.1718625e-04   1.6593375e-05  -5.9676210e-05  -1.1474130e-04  -3.8323028e-04  -2.2929497e-04  -1.3752288e-04  -3.6028090e-04   0.0000000e+00  -2.1053411e-04  -3.2001827e-04  -1.0738597e-04  -6.7832058e-04  -4.7313161e-04  -6.3528850e-04  -4.0244768e-04  -6.1904562e-04  -9.8352127e-04  -5.5078518e-05  -3.8839270e-04  -1.1319373e-04   0.0000000e+00   0.0000000e+00   0.0000000e+00  -4.6781541e-04   0.0000000e+00  -4.4269329e-04  -3.2656773e-04  -7.9468053e-05  -5.3307977e-04  -3.9225387e-04  -2.0387642e-04  -2.7327530e-04  -5.6978272e-04  -6.3761083e-04  -3.8120241e-04   0.0000000e+00   9.1236483e-06  -9.4950123e-05  -3.4483759e-04  -2.5564127e-04  -2.8587222e-04  -3.9135434e-04  -2.7813918e-04  -2.4841332e-06  -1.6728470e-04   0.0000000e+00  -1.0418716e-04  -2.2043139e-04  -6.4022577e-05  -1.6384872e-04  -4.0243769e-05  -1.9861726e-04  -9.4433029e-05  -2.3982786e-04  -4.1555945e-04  -5.6147037e-05  -4.8497229e-06  -1.3240306e-04   0.0000000e+00   0.0000000e+00   0.0000000e+00  -1.6673520e-04   0.0000000e+00  -2.3172027e-04  -5.7692722e-05  -1.7320500e-05  -2.4667959e-04   2.1079829e-05  -1.0187897e-05  -4.1559288e-05   1.9286167e-04  -4.4927319e-05   7.9504000e-05   0.0000000e+00  -1.4765396e-04  -8.2683004e-05  -9.4702875e-05   5.0673370e-06  -3.0186816e-05  -1.5341469e-03  -5.3792956e-04  -3.2894826e-05  -5.1719015e-05   0.0000000e+00   3.0620028e-04  -9.8129406e-04   3.0749540e-04  -5.4629213e-04   9.8349774e-05  -2.2686131e-04   6.8732494e-04  -2.3424517e-04  -9.4247511e-04  -3.7809146e-05   2.9917542e-04  -6.7041691e-04   0.0000000e+00   0.0000000e+00   0.0000000e+00   4.4375144e-05   0.0000000e+00  -4.7760318e-04   7.9622573e-04   1.5492720e-04   3.3015536e-05   1.5380893e-03   2.2786363e-04   5.0189904e-04   6.2234261e-04   6.6450495e-04   2.0271142e-03   0.0000000e+00  -1.9726730e-04   4.0390999e-04  -5.1192025e-04  -2.6272246e-05  -1.4208138e-03
  -1.0867405e-05  -3.1721838e-05  -7.8501042e-05  -1.5188466e-04   0.0000000e+00  -6.9471361e-05  -2.1279657e-06   1.5589119e-05   1.9606901e-05  -4.6732367e-05  -4.4847570e-05  -8.5279474e-05  -2.5664773e-05   3.6456605e-05   5.3225207e-05   2.4065963e-05  -1.7814444e-05   0.0000000e+00   0.0000000e+00   0.0000000e+00  -9.6241991e-05   0.0000000e+00  -5.5218992e-05  -9.8745505e-05  -9.3801433e-05  -1.2306914e-04  -1.1038249e-04  -1.0994197e-04  -9.0634809e-05   3.2408204e-05   2.0967483e-05  -1.0312845e-04   0.0000000e+00  -4.9093857e-05  -8.3703156e-05  -7.9850692e-06   5.3573746e-05  -5.0251556e-05  -5.8689393e-05  -1.1912752e-04   8.0692037e-05  -1.2373503e-04   0.0000000e+00   1.6095193e-05   1.5798176e-04   7.8596762e-06   1.2828569e-05   3.1166337e-04   2.9113487e-04   1.9582169e-04   1.3154428e-04   7.6559690e-05  -3.2855013e-04  -5.3793277e-06   4.9220492e-05   0.0000000e+00   0.0000000e+00   0.0000000e+00  -4.0370057e-05   0.0000000e+00  -5.4270858e-05  -7.4160164e-05  -1.2964078e-04   4.2630165e-06  -2.0807426e-05   2.0361897e-05  -2.7029009e-05  -4.4013277e-05  -3.6530254e-05   6.1510297e-05   0.0000000e+00  -2.7509239e-05  -1.8998368e-04  -4.8221414e-05   1.8630877e-04  -1.5669956e-05   6.5367174e-04   6.4445250e-04   1.4242452e-04   2.0299164e-04   0.0000000e+00   1.7646427e-04   6.9437595e-04   5.2978628e-04   7.4469717e-06  -1.1071795e-04  -9.1135531e-05   1.4617365e-04   2.1861183e-04   6.1822970e-04  -2.1675785e-04  -1.1443078e-04   2.5396059e-04   0.0000000e+00   0.0000000e+00   0.0000000e+00   2.8804210e-04   0.0000000e+00   6.4872487e-05   8.0792481e-05   3.3168713e-04  -3.5907055e-05  -8.1213253e-05   7.8061083e-05   2.7483563e-04   3.3758091e-05   8.1448519e-04  -1.4559100e-04   0.0000000e+00   9.0107936e-05   2.2953043e-04   4.4614577e-04  -7.6689243e-05   2.3248629e-03   1.6193779e-04   1.0590582e-04  -4.9916308e-05   3.2095770e-05   0.0000000e+00  -4.2474487e-05   2.1404893e-05   7.9291433e-05  -5.9257466e-05  -3.5385201e-05  -4.2519312e-05  -1.0290079e-04   6.1465249e-05  -6.2440048e-05  -2.0071763e-05   1.0502971e-05   3.5202089e-05   0.0000000e+00   0.0000000e+00   0.0000000e+00  -1.5421868e-05   0.0000000e+00  -3.4379025e-05   5.4983498e-05   3.1548868e-05  -3.7329083e-05   1.0659151e-05   3.3518855e-05   4.2731362e-05   3.3128606e-05   2.2086201e-05  -3.7883236e-05   0.0000000e+00  -4.2952932e-06   3.7497437e-05   2.4337077e-05  -2.2046965e-06   2.2100010e-05  -2.5015717e-05   2.3438284e-04   1.4435143e-04  -5.8889533e-05   0.0000000e+00   1.0110365e-04   1.3954561e-06  -1.5346034e-05   1.9898970e-05   6.9520266e-05   1.0850968e-04   1.2881113e-04   4.3150454e-05   2.6821666e-06  -6.0839601e-05  -8.9597855e-05   5.3264208e-05   0.0000000e+00   0.0000000e+00   0.0000000e+00   7.9482144e-05   0.0000000e+00   1.0542929e-04   2.6127060e-04   2.1099954e-04   1.1156017e-04   1.5254873e-04   4.8138666e-05   1.6434831e-04   4.6656609e-05   1.8587743e-04   1.1374181e-04   0.0000000e+00   8.2558350e-05   8.1482173e-05   8.6582842e-05  -1.0656348e-05   7.6908082e-06  -1.4635221e-04  -6.6374910e-05   8.8356131e-05  -2.6901555e-05   0.0000000e+00   2.6620288e-05   3.3699615e-05   1.0917996e-04   1.1883260e-04   3.3452824e-05   6.1442831e-06   4.4868663e-05  -4.0513891e-05   1.5347005e-04   7.1485292e-05   5.1874031e-05  -1.5507873e-06   0.0000000e+00   0.0000000e+00   0.0000000e+00   1.5650434e-06   0.0000000e+00  -9.8652012e-06  -5.1676995e-05  -5.6684266e-05   4.8128739e-07  -5.2135252e-05  -2.7089285e-05  -6.7484521e-05   4.3406483e-05   9.7381578e-05  -4.3653636e-05   0.0000000e+00  -5.0100241e-05  -8.1029226e-05   4.0314352e-05   7.3116466e-05   7.1933421e-06  -1.4691711e-04  -3.9664604e-05  -1.5574907e-04  -1.3498230e-04   0.0000000e+00  -5.9444009e-05  -2.2951375e-04  -5.0646718e-04  -1.5336405e-04  -1.6499704e-04  -7.8855131e-05  -8.2459967e-05  -1.2053072e-04  -2.7867890e-04  -7.6576237e-05  -1.4278333e-04  -2.4007780e-05   0.0000000e+00   0.0000000e+00   0.0000000e+00  -3.9839129e-05   0.0000000e+00  -5.9747318e-05  -3.8095536e-05  -7.9309639e-05  -7.8668062e-05  -9.4140611e-06  -6.9725281e-05   1.1134878e-05   4.4307992e-04   2.4866111e-04   1.8892287e-05   0.0000000e+00  -9.8905698e-05  -6.5351749e-05   1.4448823e-04   2.6784977e-04   3.1976831e-05  -1.4864880e-04  -1.4457424e-04  -9.6964088e-05  -2.3367701e-04   0.0000000e+00  -1.2262047e-04  -8.3191959e-05  -1.9071386e-04  -7.0404494e-05  -1.5387247e-04  -1.5067139e-04  -2.0059337e-04  -1.4867814e-04  -1.5514893e-05  -8.7503036e-05  -1.5781698e-04  -9.0165347e-05   0.0000000e+00   0.0000000e+00   0.0000000e+00  -1.4776264e-04   0.0000000e+00  -8.3723585e-05  -2.1198949e-04  -1.9790502e-04  -1.2712987e-04  -1.5062424e-04  -1.8334133e-04  -1.5403302e-04  -1.9061735e-04  -6.2984101e-05  -1.2733774e-04   0.0000000e+00  -8.4085763e-05  -1.1519276e-04   1.8100741e-05  -6.0476474e-05  -1.2050563e-04  -4.2269675e-04  -2.4078213e-04  -1.5129852e-04  -3.9257647e-04   0.0000000e+00  -1.9382021e-04  -3.6085180e-04  -1.0118500e-04  -6.7984486e-04  -4.7649678e-04  -6.3549897e-04  -3.7666801e-04  -6.2762110e-04  -1.0206671e-03  -3.4724577e-05  -3.8254688e-04  -1.1255205e-04   0.0000000e+00   0.0000000e+00   0.0000000e+00  -4.5044957e-04   0.0000000e+00  -4.4329342e-04  -3.5001821e-04  -7.7504631e-05  -5.3113816e-04  -3.8920209e-04  -2.1504947e-04  -2.8368138e-04  -5.6546681e-04  -6.3715661e-04  -3.7036643e-04   0.0000000e+00   1.4198616e-05  -8.8349157e-05  -3.4102156e-04  -2.5012734e-04  -3.0085561e-04  -4.7578877e-04  -3.2686718e-04  -4.5386133e-05  -1.9383156e-04   0.0000000e+00  -1.1487111e-04  -3.3851677e-04  -1.3779481e-04  -2.6500155e-04  -6.3197174e-05  -2.3705751e-04  -1.0278180e-04  -3.1173759e-04  -5.3860227e-04  -9.9521749e-05  -5.2951926e-05  -1.7281653e-04   0.0000000e+00   0.0000000e+00   0.0000000e+00  -1.7772206e-04   0.0000000e+00  -2.6128888e-04  -3.9789828e-05  -2.9875426e-05  -2.6037655e-04   6.7757906e-05  -4.3771682e-06  -2.4433328e-05   2.5238563e-04  -6.8630410e-05   1.1848007e-04   0.0000000e+00  -1.6590561e-04  -9.4739535e-05  -1.5526437e-04   5.3627755e-06  -1.3006746e-04  -1.5628298e-03  -5.4898843e-04  -9.5948792e-05  -7.2868041e-05   0.0000000e+00   3.3547577e-04  -9.6309491e-04   4.2324197e-04  -6.5527521e-04   1.0882186e-04  -2.1087807e-04   7.2791952e-04  -2.2295676e-04  -9.6139813e-04  -7.9836380e-05   2.8795540e-04  -6.6708182e-04   0.0000000e+00   0.0000000e+00   0.0000000e+00   6.0885587e-05   0.0000000e+00  -4.7956631e-04   8.4547218e-04   1.6626748e-04   5.3657253e-05   1.6022034e-03   2.4878987e-04   5.3490171e-04   6.8130694e-04   6.9299689e-04   2.0976079e-03   0.0000000e+00  -1.8549514e-04   4.2759632e-04  -4.9027771e-04  -4.1472474e-05  -1.5015846e-03
