  -8.0713544e-05  -6.8442677e-05  -2.9452793e-05  -6.7018251e-05   0.0000000e+00  -4.7004100e-05  -6.6211930e-05  -4.8817989e-05  -3.0589623e-05  -4.9355966e-05  -9.0085767e-05  -6.9043522e-05  -4.3530866e-05  -3.5707889e-05  -3.1643467e-05  -5.4616785e-05  -7.2214658e-05  -1.0524672e-04  -8.9478331e-05  -7.8987582e-05  -6.0388887e-05  -7.7531003e-05  -5.3386708e-05  -5.0598798e-05   0.0000000e+00  -4.4896104e-05  -8.0373784e-06  -1.6351571e-05  -1.2663216e-05  -5.4963535e-06  -4.0737145e-05  -7.8706271e-05  -8.9283826e-05  -4.2243516e-05  -2.3815895e-05  -4.9491268e-06  -3.9208434e-05  -1.2922354e-05  -3.4008308e-04  -7.6999806e-05  -9.9520888e-05  -1.1495124e-04   0.0000000e+00  -4.0410955e-05   2.0199053e-05  -1.1317087e-06  -9.4828816e-05  -1.9786848e-05   1.5481923e-05  -1.4929851e-05  -2.8043983e-04  -1.3995780e-04  -2.1256161e-05  -1.1190926e-05   1.0180304e-04   1.4698159e-04  -4.1679749e-05   1.5017964e-06  -1.2431585e-04  -1.2223257e-04  -1.3032805e-04  -1.8686395e-04   0.0000000e+00  -1.3904512e-04   7.3437575e-05   4.9300330e-06   8.0173924e-06  -9.6312843e-05  -8.3803757e-05   1.1841372e-04   1.2205385e-04   3.7283055e-05  -6.3984725e-05   6.3922308e-05  -2.0240687e-04  -6.6461278e-05  -2.6786075e-04  -5.8278775e-05  -6.0009917e-05  -1.4748017e-04   0.0000000e+00  -7.5590215e-05   5.8742681e-05  -1.2965625e-04  -5.1122571e-05  -1.4910806e-04  -1.7989041e-04  -1.4758441e-04   2.7383076e-05   2.7889324e-04  -1.4828548e-04  -7.3428746e-05  -1.5112740e-04  -2.8583528e-04  -2.0882217e-04  -1.4940811e-04  -1.1345755e-04  -1.3873993e-04  -5.2368787e-05  -1.6256831e-04   0.0000000e+00  -7.3483340e-05  -1.0136866e-04  -6.7252788e-05  -5.6885313e-05  -9.9668740e-05  -1.4379058e-04  -1.5766091e-04  -2.2893947e-04  -8.4042721e-05  -5.1008606e-05  -1.0477796e-04  -1.1260592e-04  -7.2538825e-05  -2.9271263e-05  -5.7814952e-05  -2.8468819e-05  -4.6490001e-05   0.0000000e+00  -3.2931931e-05  -3.0073792e-05  -4.3758253e-05  -3.5141420e-05  -5.0668516e-05  -4.2804076e-05  -2.5118745e-05  -3.5444609e-05  -2.0544847e-05  -3.1100747e-05  -5.8700166e-05  -3.3206255e-05  -1.6312601e-05  -2.3679361e-05  -1.6167834e-05  -1.7660719e-05  -9.7479199e-05  -3.7943924e-05  -6.1258132e-05   0.0000000e+00  -2.3121030e-05  -1.4127447e-05  -2.0633699e-05  -2.4043013e-05  -2.3279296e-05  -5.8451807e-05  -1.6495579e-05  -3.4806905e-05  -2.3836204e-05  -2.4067368e-05  -1.5975061e-05  -1.2651444e-05  -4.5206438e-05  -6.1469733e-05  -1.2006487e-05  -4.2166595e-05  -4.6572374e-05   0.0000000e+00  -2.4216047e-05  -9.2890313e-05  -8.3741918e-05  -5.0933949e-05  -2.6277566e-05  -7.1265257e-05  -5.4376392e-05  -7.4919150e-05  -6.4652057e-05  -2.3273208e-05  -3.9129753e-05  -6.6848777e-05  -5.9921188e-05  -3.6720178e-05  -1.2221721e-05  -8.0917660e-06  -4.0781143e-05  -8.5891571e-06   2.9791428e-06   0.0000000e+00   3.7702871e-06  -5.9011446e-06  -1.8324999e-06  -2.9053862e-05  -2.1612295e-05  -3.9406362e-05   1.5745819e-05   7.1369926e-06  -2.3578417e-05  -3.7905190e-05  -2.6099354e-05  -3.8383652e-05  -1.4771953e-05  -3.4701164e-05  -8.8811121e-05  -2.1064346e-05  -3.7736841e-05   0.0000000e+00  -2.2108371e-05   3.2269618e-07  -7.8627305e-06  -7.3906932e-06  -1.9242499e-06  -3.8205705e-05  -3.5042705e-05  -1.3177029e-05  -1.0192565e-05  -5.4422707e-06  -9.4267479e-06  -2.6331444e-05  -4.3636465e-05  -3.4631500e-05  -2.2927536e-05  -2.3240788e-05  -4.9461998e-05  -2.1572290e-05  -5.2381026e-05   0.0000000e+00  -3.4428919e-05  -5.0886342e-06  -1.0358479e-05  -2.3683351e-05  -2.7769658e-05  -6.2376992e-05  -4.3138806e-05  -5.2922412e-05  -2.8358128e-05  -2.3319473e-05  -2.1712479e-05  -1.0162352e-04  -4.6402233e-05  -7.6983432e-05  -1.0701873e-04  -4.1138163e-05  -4.9750784e-05   0.0000000e+00  -2.9583029e-05  -5.3117106e-05  -2.9760222e-05  -8.2025994e-06  -2.1447062e-05  -6.9956288e-05  -4.4187808e-05  -3.1950605e-05  -1.9156279e-05  -1.2281402e-05  -1.8003718e-05  -4.0415105e-05  -4.9054917e-05  -5.5189423e-05  -2.3324525e-05  -4.0244467e-05  -3.5835589e-05  -2.7926531e-05  -4.3322966e-05   0.0000000e+00  -4.9237877e-05   1.9312270e-05   9.1520822e-06  -1.8214128e-05  -2.3525885e-05  -9.6350628e-05  -5.7074436e-05  -8.2119972e-05  -5.4239561e-05  -3.5683598e-05  -3.7908114e-06  -6.2002408e-05  -7.2040174e-05   1.3862504e-04   4.2546034e-05   2.0244349e-05   5.6417289e-05   0.0000000e+00   1.4524792e-05   1.0811990e-05   2.3880352e-05   3.0783356e-05   1.5380071e-05   5.7494609e-06   1.7665798e-05   4.7024038e-05   7.2932912e-05   1.4597066e-05   2.5209896e-05   5.8070535e-05   4.8925539e-05   2.6020788e-05   4.1730067e-05   6.3299471e-05   6.1332335e-06   2.8082697e-05  -5.1929047e-06   0.0000000e+00  -1.5666356e-05   4.6591544e-06   1.5048576e-05  -7.2013227e-06  -7.7736608e-06   4.6677184e-06   2.4115743e-05   6.9089299e-06  -3.3993635e-05  -1.3493160e-05   4.4034195e-05  -7.2856000e-05   3.1689509e-05  -6.1509202e-05  -3.0007107e-05  -8.3362240e-05  -5.0601131e-05   0.0000000e+00  -2.4744962e-06  -1.8316667e-05  -1.3047704e-05  -4.1154803e-05  -2.5832776e-05  -5.2663182e-05   2.5605908e-06  -2.3605992e-05   8.6346699e-07   1.3616063e-06  -5.9185353e-05  -6.8421046e-05  -7.0228277e-05  -7.2219101e-06   6.3166781e-05   3.8919856e-05  -8.8125460e-05  -9.4389725e-07  -6.1831603e-05   0.0000000e+00   2.6926051e-06   4.0573327e-05   4.8990332e-06   8.3679017e-06   2.3974981e-05  -1.6393970e-05   7.0905116e-06  -5.0517162e-05  -4.0162210e-05  -9.9134541e-06   4.2205323e-05  -1.2420843e-04  -2.2896601e-05   8.1550398e-05   2.2203628e-05   4.1986214e-05   1.2143564e-04   0.0000000e+00   2.5401319e-05   7.3962425e-05  -1.2442156e-04  -2.9044122e-05   1.5567634e-04   1.6539228e-04   1.1047086e-04   1.3682505e-04   3.5484366e-05  -2.2128853e-05   5.5093537e-05   1.4415685e-04   1.5244443e-04   1.1111324e-04   1.3642250e-04   1.8663532e-04   1.6519421e-04   1.1666960e-04   1.4914429e-04   0.0000000e+00   1.4037022e-04   1.2926228e-04   8.9237268e-05   5.8661787e-06  -2.1035320e-05   2.2700842e-05   1.0393010e-04   7.2138670e-05  -1.6001488e-05  -2.1805092e-05  -5.0388104e-05   9.9032089e-06  -7.2958278e-05   1.8628910e-04   3.2227358e-05   2.9804104e-05  -2.2680662e-05   0.0000000e+00   1.9691499e-05  -2.3368753e-05  -4.1359648e-05   1.9054339e-06   4.2187425e-05   1.4372742e-05   2.2865620e-05  -3.1635349e-05  -5.3918396e-06  -1.1028393e-05  -1.9843714e-06   2.3184243e-06  -1.3552042e-05   4.6990443e-05   4.3634711e-05   9.0260225e-05  -3.0383007e-05   3.4772969e-05   2.1754251e-05   0.0000000e+00   4.7856814e-05  -4.1538693e-05   2.0943778e-06  -2.4999560e-06   2.5789460e-06  -3.8832981e-06   3.5238131e-05   4.8624859e-05  -3.8165327e-06  -2.8650725e-06  -6.4580949e-06   1.0356938e-05  -3.5811711e-05  -7.0700550e-04   4.8494030e-05   6.3437878e-05   2.9765624e-05   0.0000000e+00  -1.5889135e-05  -4.3412513e-05  -2.2334199e-05  -3.0227553e-05   7.5834361e-05   2.6983782e-05  -1.8597031e-05  -3.5891878e-05  -1.3749942e-04  -7.9129625e-05   2.6565647e-05   1.7519824e-04   2.4382160e-04  -3.3343004e-05  -1.5547725e-05  -5.8908460e-05  -2.3874499e-05  -3.3998758e-05  -2.9507372e-04   0.0000000e+00  -8.6632554e-05   2.6115778e-04  -9.0197439e-06   2.6433820e-05  -1.1197807e-04  -1.7374689e-04   1.2655725e-04   1.7881669e-04   7.6400528e-05   1.6802905e-05   2.0554256e-06  -3.5061230e-04  -3.8068926e-05
  -9.5810620e-05  -8.6778044e-05  -3.5399383e-05  -7.8836862e-05   0.0000000e+00  -5.5214652e-05  -7.6938925e-05  -5.7390307e-05  -3.5375510e-05  -5.9057536e-05  -1.0761419e-04  -8.1399255e-05  -5.1033753e-05  -4.1131097e-05  -3.6961938e-05  -6.3887869e-05  -8.6629852e-05  -1.2272695e-04  -1.0485686e-04  -9.2407348e-05  -7.3315730e-05  -9.1636522e-05  -6.3176710e-05  -6.1041334e-05   0.0000000e+00  -5.5974563e-05  -1.0433120e-05  -1.9900110e-05  -1.6175718e-05  -8.6937292e-06  -5.1514916e-05  -9.1561871e-05  -1.0350240e-04  -4.9845455e-05  -2.9228934e-05  -6.7435843e-06  -4.8027692e-05  -1.9699882e-05  -3.7144703e-04  -9.5679163e-05  -1.0220421e-04  -1.2579784e-04   0.0000000e+00  -4.9252096e-05   1.2257823e-05   1.3956717e-06  -1.0844872e-04  -1.7910522e-06   2.6068281e-05  -1.7973971e-05  -3.4786557e-04  -1.9016957e-04  -2.3960493e-05  -1.4223979e-05   1.3712435e-04   1.8108547e-04  -5.2191706e-05   2.8716832e-06  -1.4008078e-04  -1.3398980e-04  -1.5655883e-04  -2.2507473e-04   0.0000000e+00  -1.7116002e-04   7.3394874e-05  -8.3569162e-06   1.0206918e-05  -1.3014922e-04  -1.1767835e-04   1.4057775e-04   1.5935342e-04   2.0518333e-05  -7.8040348e-05   9.1486119e-05  -3.0933352e-04  -1.0278950e-04  -3.0792916e-04  -7.1664703e-05  -6.5089801e-05  -1.6746769e-04   0.0000000e+00  -7.7998295e-05   8.5568759e-05  -1.0465853e-04  -5.8501673e-05  -1.6279481e-04  -1.7738062e-04  -1.5069864e-04   3.1308950e-05   2.9005293e-04  -1.4803735e-04  -6.9812450e-05  -1.5488299e-04  -2.8990046e-04  -2.2539444e-04  -1.5723079e-04  -1.2165971e-04  -1.4759687e-04  -5.7909837e-05  -1.8290581e-04   0.0000000e+00  -8.3147325e-05  -1.0914720e-04  -8.1352095e-05  -6.6050837e-05  -1.1003369e-04  -1.6079635e-04  -1.6238574e-04  -2.3539676e-04  -7.9558607e-05  -5.4124079e-05  -1.2331486e-04  -1.2344512e-04  -5.7136947e-05  -4.2084176e-05  -6.3889600e-05  -3.1800155e-05  -5.8362792e-05   0.0000000e+00  -4.0035408e-05  -3.7364274e-05  -5.1820531e-05  -4.2156710e-05  -6.1117281e-05  -5.0233506e-05  -2.9996885e-05  -3.8257467e-05  -2.3640720e-05  -3.5439337e-05  -6.7128448e-05  -3.6360002e-05  -1.4916158e-05  -2.6189844e-05  -1.6732310e-05  -2.0106884e-05  -1.0994790e-04  -4.3937758e-05  -6.8618005e-05   0.0000000e+00  -2.7442051e-05  -1.7141605e-05  -2.5260484e-05  -2.6414927e-05  -2.6283616e-05  -6.7110201e-05  -1.6762674e-05  -3.6091765e-05  -2.7492794e-05  -2.7064901e-05  -1.6977792e-05  -1.2674740e-05  -5.3767270e-05  -5.4577628e-05  -1.0403773e-05  -4.4769976e-05  -4.6462753e-05   0.0000000e+00  -2.3216420e-05  -1.0100384e-04  -8.8430621e-05  -5.4332860e-05  -2.5273109e-05  -7.3771001e-05  -5.4404614e-05  -8.4208167e-05  -7.3624150e-05  -2.3874943e-05  -3.9950475e-05  -6.9960869e-05  -6.0464621e-05  -3.6142539e-05  -1.1692394e-05  -6.1239885e-06  -4.0687375e-05  -6.7222843e-06   8.0885213e-06   0.0000000e+00   7.2143780e-06  -2.9164326e-06   6.7267945e-07  -3.2093069e-05  -2.3916259e-05  -4.2462629e-05   2.1083784e-05   1.2448768e-05  -2.1496487e-05  -4.0645900e-05  -3.0870963e-05  -3.9446813e-05  -1.2445281e-05  -4.0900583e-05  -9.9486966e-05  -2.5758703e-05  -4.3743170e-05   0.0000000e+00  -2.4810149e-05  -1.1341371e-06  -9.9128245e-06  -9.9161259e-06  -1.8914044e-06  -4.2513813e-05  -4.0959486e-05  -1.3049120e-05  -9.9630654e-06  -7.0092061e-06  -1.0956024e-05  -2.9044571e-05  -4.6316419e-05  -3.7580225e-05  -2.4311573e-05  -2.5528822e-05  -5.3884830e-05  -2.3841839e-05  -5.7951115e-05   0.0000000e+00  -3.7838342e-05  -4.4052092e-06  -1.1415270e-05  -2.6160276e-05  -3.0626600e-05  -6.9594188e-05  -4.6525609e-05  -5.6368433e-05  -3.1209208e-05  -2.6219642e-05  -2.6230965e-05  -1.0752826e-04  -5.3075784e-05  -7.7471702e-05  -1.1456885e-04  -4.2736436e-05  -4.9277728e-05   0.0000000e+00  -2.6024800e-05  -5.2488627e-05  -2.8966438e-05  -6.7150968e-06  -2.0084138e-05  -7.0059367e-05  -4.1133368e-05  -3.4412009e-05  -2.0768518e-05  -1.2378315e-05  -1.6473310e-05  -4.2681873e-05  -4.9589024e-05  -5.4898947e-05  -2.3564205e-05  -4.2381768e-05  -3.4799962e-05  -2.7434895e-05  -4.3837173e-05   0.0000000e+00  -4.9829036e-05   1.8300353e-05   9.9836904e-06  -2.0239399e-05  -2.6285731e-05  -1.0308371e-04  -5.8751139e-05  -8.6130914e-05  -5.4204417e-05  -3.7154993e-05  -8.9522885e-06  -6.3311180e-05  -7.8126901e-05   1.7296971e-04   6.0008399e-05   2.8266485e-05   6.9917597e-05   0.0000000e+00   2.3940812e-05   2.2646435e-05   3.5686324e-05   4.0297421e-05   2.5969700e-05   2.1356304e-05   3.1179273e-05   5.8942339e-05   8.7612914e-05   2.0345174e-05   3.5701931e-05   7.5810486e-05   6.6753393e-05   3.9429512e-05   5.2599305e-05   7.8812258e-05   1.8307815e-05   3.8318841e-05   4.4320445e-06   0.0000000e+00  -1.0046614e-05   2.7032773e-06   1.5624637e-05  -6.1490522e-06  -6.7887787e-06   9.5207967e-06   3.6081972e-05   1.9027221e-05  -3.1462610e-05  -1.0980205e-05   4.5415856e-05  -7.7280196e-05   4.1732237e-05  -5.6635926e-05  -3.4816005e-05  -9.2046299e-05  -5.0396328e-05   0.0000000e+00  -5.1381297e-06  -1.8960153e-05  -1.2567928e-05  -4.6088797e-05  -2.5697676e-05  -6.5676160e-05   4.3684025e-06  -1.9475071e-05   3.9885417e-06   4.5222678e-06  -5.9828621e-05  -6.7191126e-05  -6.3719060e-05   3.7779604e-06   8.3129550e-05   5.7648433e-05  -8.6505905e-05   6.6503580e-06  -6.3065148e-05   0.0000000e+00   4.0580114e-06   4.4720303e-05   6.6125576e-06   1.0618354e-05   2.7196330e-05  -1.6016326e-05   1.6515474e-05  -4.8350389e-05  -4.4083433e-05  -1.1611553e-05   4.6778947e-05  -1.4605850e-04  -3.1655729e-05   8.4456706e-05   2.3054376e-05   4.4629235e-05   1.3880044e-04   0.0000000e+00   3.0305634e-05   7.2359401e-05  -1.3178570e-04  -3.3544112e-05   1.6916259e-04   1.8202709e-04   1.2515074e-04   1.4236184e-04   2.4796290e-05  -2.2040100e-05   5.8491016e-05   1.5789013e-04   1.6883297e-04   1.2452615e-04   1.5227538e-04   2.1150378e-04   1.8224559e-04   1.3066569e-04   1.6487901e-04   0.0000000e+00   1.5951827e-04   1.4628174e-04   1.0068446e-04   4.6240536e-06  -2.3944888e-05   2.6843831e-05   1.1827797e-04   8.1432338e-05  -1.8406076e-05  -2.3202956e-05  -5.3034035e-05   1.4764422e-05  -8.0994020e-05   2.1966880e-04   3.5466154e-05   3.1192568e-05  -1.3267056e-05   0.0000000e+00   2.3214489e-05  -2.9952469e-05  -4.2392330e-05   1.0458731e-05   4.9602765e-05   1.6311841e-05   2.6989587e-05  -2.7226983e-05  -2.6954079e-07  -1.2960102e-05   1.8952475e-06   2.0672931e-06  -1.9478278e-05   5.1369169e-05   4.6797642e-05   1.0222401e-04  -4.0696750e-05   3.9737977e-05   2.4426850e-05   0.0000000e+00   5.1900427e-05  -5.2581358e-05  -1.3648060e-06  -4.7093564e-06   5.1079681e-06  -7.6538709e-06   3.8428777e-05   5.6795830e-05  -8.0302627e-06  -3.1005844e-06  -6.4491381e-06   1.0845804e-05  -4.6140525e-05  -8.2434832e-04   5.8058233e-05   8.1159009e-05   4.0610187e-05   0.0000000e+00  -1.4788226e-05  -4.6817304e-05  -1.8476926e-05  -2.5998777e-05   1.0021362e-04   4.6121027e-05  -1.4216018e-05  -3.3933902e-05  -1.6052662e-04  -8.8995739e-05   4.0808825e-05   2.1691972e-04   2.9251362e-04  -3.4524911e-05  -5.5736609e-06  -5.1149891e-05  -2.7225627e-05  -3.8744236e-05  -3.4148432e-04   0.0000000e+00  -1.0270313e-04   2.9774497e-04  -1.3987542e-05   2.8393858e-05  -1.3448190e-04  -2.2025049e-04   1.6435982e-04   2.2144566e-04   8.8155943e-05   2.2342203e-05   2.7017453e-06  -4.2673039e-04  -6.2837930e-05
  -1.1071947e-04  -1.0573688e-04  -4.1170250e-05  -9.0150290e-05   0.0000000e+00  -6.3068719e-05  -8.6855384e-05  -6.5469013e-05  -3.9762981e-05  -6.8605260e-05  -1.2488721e-04  -9.3280099e-05  -5.8070792e-05  -4.5958937e-05  -4.1923828e-05  -7.2638789e-05  -1.0092013e-04  -1.3936322e-04  -1.1955739e-04  -1.0511083e-04  -8.6162063e-05  -1.0511440e-04  -7.2487348e-05  -7.1337819e-05   0.0000000e+00  -6.7119786e-05  -1.2738842e-05  -2.3292483e-05  -1.9787068e-05  -1.2198157e-05  -6.2665257e-05  -1.0375657e-04  -1.1694796e-04  -5.7080506e-05  -3.4605996e-05  -8.6746233e-06  -5.6948758e-05  -2.6946508e-05  -3.8759404e-04  -1.1034298e-04  -9.7799712e-05  -1.3038177e-04   0.0000000e+00  -5.5809785e-05   5.3443015e-07   5.4218954e-06  -1.1842984e-04   2.3385792e-05   4.1009720e-05  -1.7335495e-05  -4.1532803e-04  -2.4474812e-04  -2.7044849e-05  -1.6045359e-05   1.7831354e-04   2.1960280e-04  -6.0328542e-05   7.0733600e-06  -1.4940178e-04  -1.3744041e-04  -1.7985735e-04  -2.5976107e-04   0.0000000e+00  -2.0143441e-04   7.0330025e-05  -2.5448241e-05   1.2348262e-05  -1.6667872e-04  -1.5362245e-04   1.6515308e-04   2.0349959e-04  -1.9658814e-06  -9.1482974e-05   1.2294488e-04  -4.2999346e-04  -1.4308404e-04  -3.4324992e-04  -8.6242012e-05  -6.8976032e-05  -1.8629321e-04   0.0000000e+00  -7.8063749e-05   1.1028312e-04  -7.4139403e-05  -6.4574463e-05  -1.7298481e-04  -1.6959624e-04  -1.4926068e-04   3.3240164e-05   2.9255900e-04  -1.4366898e-04  -6.3060463e-05  -1.5438347e-04  -2.8438962e-04  -2.3786730e-04  -1.5973590e-04  -1.2535444e-04  -1.5263148e-04  -6.1876514e-05  -2.0056549e-04   0.0000000e+00  -9.0661934e-05  -1.1431358e-04  -9.4781126e-05  -7.3867062e-05  -1.1912771e-04  -1.7678844e-04  -1.6115139e-04  -2.3375085e-04  -7.1377120e-05  -5.5754066e-05  -1.3999636e-04  -1.3226765e-04  -3.9984445e-05  -5.5468759e-05  -6.7945369e-05  -3.4107277e-05  -6.9481340e-05   0.0000000e+00  -4.6444880e-05  -4.4371160e-05  -5.9409575e-05  -4.8507778e-05  -7.1085656e-05  -5.6392262e-05  -3.4026814e-05  -3.9905960e-05  -2.6580484e-05  -3.9121944e-05  -7.3994705e-05  -3.8613437e-05  -1.2240363e-05  -2.7744700e-05  -1.6468568e-05  -2.2062143e-05  -1.1941427e-04  -4.8835963e-05  -7.4262285e-05   0.0000000e+00  -3.1153044e-05  -1.9807882e-05  -2.9557550e-05  -2.8230005e-05  -2.8915813e-05  -7.5003473e-05  -1.6142961e-05  -3.6063662e-05  -3.0596745e-05  -2.9616998e-05  -1.7529372e-05  -1.2111938e-05  -6.1815700e-05  -4.3561281e-05  -7.3560356e-06  -4.5989034e-05  -4.4285838e-05   0.0000000e+00  -2.0892840e-05  -1.0739682e-04  -9.1307759e-05  -5.6469320e-05  -2.2674360e-05  -7.3886322e-05  -5.2236274e-05  -9.2613915e-05  -8.1709455e-05  -2.4085130e-05  -3.9458068e-05  -7.0822923e-05  -5.8529306e-05  -3.3708706e-05  -1.0088322e-05  -2.5779529e-06  -3.8775436e-05  -3.8970533e-06   1.4017947e-05   0.0000000e+00   1.1466829e-05   1.0154144e-06   3.8768205e-06  -3.4673568e-05  -2.5864487e-05  -4.4388063e-05   2.7408168e-05   1.8961378e-05  -1.8440238e-05  -4.2662819e-05  -3.5439143e-05  -3.9035629e-05  -8.9795704e-06  -4.7239876e-05  -1.0892437e-04  -3.0603625e-05  -4.9462187e-05   0.0000000e+00  -2.7139458e-05  -2.4365250e-06  -1.1914519e-05  -1.2460201e-05  -1.7411102e-06  -4.6110598e-05  -4.6619403e-05  -1.2193514e-05  -9.4813636e-06  -8.4333676e-06  -1.2223077e-05  -3.1282945e-05  -4.7990338e-05  -3.9592291e-05  -2.5000556e-05  -2.7414344e-05  -5.7189954e-05  -2.5589919e-05  -6.2642702e-05   0.0000000e+00  -4.0635083e-05  -3.3490847e-06  -1.2075258e-05  -2.8216795e-05  -3.3100387e-05  -7.5576897e-05  -4.8851505e-05  -5.8506009e-05  -3.2956478e-05  -2.8502808e-05  -3.0985379e-05  -1.1078725e-04  -5.9062349e-05  -7.5411361e-05  -1.2005397e-04  -4.3791107e-05  -4.8138910e-05   0.0000000e+00  -2.1253329e-05  -4.9909097e-05  -2.7589153e-05  -5.2466017e-06  -1.8272621e-05  -6.8746343e-05  -3.6700754e-05  -3.6738598e-05  -2.2196659e-05  -1.2296599e-05  -1.4349772e-05  -4.4727011e-05  -4.9593734e-05  -5.2976499e-05  -2.3820504e-05  -4.4060722e-05  -3.3345093e-05  -2.6460479e-05  -4.3479263e-05   0.0000000e+00  -4.9211113e-05   1.5654677e-05   1.0036498e-05  -2.2038345e-05  -2.8842110e-05  -1.0756868e-04  -5.8819054e-05  -8.7961906e-05  -5.1944839e-05  -3.7390625e-05  -1.5071111e-05  -6.3099985e-05  -8.3093690e-05   2.0880743e-04   8.0161306e-05   3.7644267e-05   8.3818686e-05   0.0000000e+00   3.4942756e-05   3.6432575e-05   4.8780153e-05   5.0340683e-05   3.8159476e-05   4.0007922e-05   4.6839381e-05   7.1866082e-05   1.0218917e-04   2.6828705e-05   4.7454196e-05   9.4958118e-05   8.6929507e-05   5.5187772e-05   6.4787848e-05   9.5519464e-05   3.3699276e-05   5.0021912e-05   1.7518894e-05   0.0000000e+00  -1.7191722e-06   9.0906146e-07   1.6255547e-05  -4.2896178e-06  -4.9766484e-06   1.6115706e-05   5.0248132e-05   3.4076772e-05  -2.6501912e-05  -6.8966371e-06   4.5356699e-05  -7.8987463e-05   5.3121911e-05  -4.9069846e-05  -3.9251502e-05  -9.9375480e-05  -4.7744724e-05   0.0000000e+00  -7.5759538e-06  -1.7026266e-05  -1.0008828e-05  -4.9821552e-05  -2.4471386e-05  -7.7194132e-05   7.5573565e-06  -1.3475211e-05   7.8237645e-06   8.4027215e-06  -5.8161277e-05  -6.3452506e-05  -5.4058894e-05   1.6929677e-05   1.0406141e-04   7.7984102e-05  -8.2139442e-05   1.5307904e-05  -6.3184326e-05   0.0000000e+00   5.4913823e-06   4.7512510e-05   8.0926111e-06   1.3161863e-05   3.0455438e-05  -1.4855469e-05   2.6699741e-05  -4.5119128e-05  -4.7263464e-05  -1.3002722e-05   5.0861839e-05  -1.6654358e-04  -4.0431758e-05   8.4654671e-05   2.3273921e-05   4.6380383e-05   1.5434931e-04   0.0000000e+00   3.5056951e-05   6.7320611e-05  -1.3876415e-04  -3.8084106e-05   1.7838693e-04   1.9567740e-04   1.3914777e-04   1.4390855e-04   1.1301411e-05  -2.3290765e-05   6.0263308e-05   1.6822696e-04   1.8235525e-04   1.3637216e-04   1.6572124e-04   2.3451577e-04   1.9665641e-04   1.4295988e-04   1.7832710e-04   0.0000000e+00   1.7679995e-04   1.6046322e-04   1.1003984e-04   2.6435361e-06  -2.6872850e-05   3.0108989e-05   1.3216160e-04   9.0404816e-05  -2.0355334e-05  -2.4133213e-05  -5.5106388e-05   2.0535711e-05  -8.8170792e-05   2.5532013e-04   4.0116356e-05   3.1664473e-05   7.6402925e-07   0.0000000e+00   2.7717602e-05  -3.6988638e-05  -4.2078878e-05   2.0923474e-05   5.7623545e-05   1.9429331e-05   3.2367185e-05  -2.1516041e-05   5.6254021e-06  -1.4960222e-05   6.6547142e-06   2.0899099e-06  -2.4983187e-05   5.5792166e-05   4.9796572e-05   1.1378437e-04  -5.1818674e-05   4.4432919e-05   2.7342848e-05   0.0000000e+00   5.5897418e-05  -6.3900844e-05  -5.2218970e-06  -7.0086545e-06   8.5008292e-06  -1.0791540e-05   4.2640282e-05   6.6633649e-05  -1.1498790e-05  -2.6846818e-06  -5.9124989e-06   1.2189968e-05  -5.6588675e-05  -9.3597137e-04   6.5901526e-05   9.8932305e-05   5.1580140e-05   0.0000000e+00  -1.3647476e-05  -4.9256511e-05  -1.3167489e-05  -2.0152174e-05   1.2558021e-04   6.5893570e-05  -9.9762395e-06  -3.0345639e-05  -1.8213451e-04  -9.7160088e-05   5.6294133e-05   2.5889923e-04   3.3834313e-04  -3.5983169e-05   6.1938000e-06  -3.9614272e-05  -3.0742788e-05  -4.3235363e-05  -3.8469701e-04   0.0000000e+00  -1.1943275e-04   3.2890665e-04  -2.0331726e-05   2.9426804e-05  -1.5742974e-04  -2.6959775e-04   2.0231565e-04   2.6266313e-04   9.8333493e-05   2.7832124e-05   3.0223494e-06  -5.0322152e-04  -9.2315177e-05
  -1.2501709e-04  -1.2481001e-04  -4.6598981e-05  -1.0064021e-04   0.0000000e+00  -7.0349117e-05  -9.5607240e-05  -7.2768207e-05  -4.3609842e-05  -7.7750589e-05  -1.4147769e-04  -1.0434160e-04  -6.4384007e-05  -4.9975642e-05  -4.6351611e-05  -8.0595260e-05  -1.1468257e-04  -1.5469939e-04  -1.3315392e-04  -1.1671049e-04  -9.8518452e-05  -1.1756321e-04  -8.1016794e-05  -8.1214890e-05   0.0000000e+00  -7.7985031e-05  -1.4861986e-05  -2.6403431e-05  -2.3406505e-05  -1.5908095e-05  -7.3918280e-05  -1.1497538e-04  -1.2930860e-04  -6.3745256e-05  -3.9796212e-05  -1.0699368e-05  -6.5789142e-05  -3.4396954e-05  -3.8592563e-04  -1.1911893e-04  -8.5389017e-05  -1.2726414e-04   0.0000000e+00  -5.9106768e-05  -1.4927988e-05   1.1188672e-05  -1.2361690e-04   5.5800715e-05   6.0688917e-05  -1.1820980e-05  -4.8008342e-04  -3.0169465e-04  -3.0684334e-05  -1.6006151e-05   2.2494129e-04   2.6241363e-04  -6.4905658e-05   1.4789087e-05  -1.5063250e-04  -1.3071752e-04  -1.9855523e-04  -2.8858225e-04   0.0000000e+00  -2.2801667e-04   6.4414760e-05  -4.5976073e-05   1.4349872e-05  -2.0458064e-04  -1.9001627e-04   1.9231425e-04   2.5444609e-04  -2.9420930e-05  -1.0359025e-04   1.5755791e-04  -5.6054367e-04  -1.8578178e-04  -3.7125153e-04  -1.0075526e-04  -7.1355911e-05  -2.0284712e-04   0.0000000e+00  -7.5511198e-05   1.3126547e-04  -4.0348543e-05  -6.8561790e-05  -1.7921577e-04  -1.5698491e-04  -1.4299008e-04   3.3462866e-05   2.8791577e-04  -1.3587688e-04  -5.3327269e-05  -1.4980410e-04  -2.6981096e-04  -2.4575700e-04  -1.5623904e-04  -1.2338824e-04  -1.5346431e-04  -6.3703012e-05  -2.1465873e-04   0.0000000e+00  -9.4877507e-05  -1.1640130e-04  -1.0648653e-04  -7.9728781e-05  -1.2651114e-04  -1.9114600e-04  -1.5345707e-04  -2.2366428e-04  -5.9821044e-05  -5.5607958e-05  -1.5373034e-04  -1.3839267e-04  -2.2427719e-05  -6.8752244e-05  -6.9644453e-05  -3.5196365e-05  -7.9252564e-05   0.0000000e+00  -5.1801434e-05  -5.0751479e-05  -6.6206514e-05  -5.3877876e-05  -8.0197137e-05  -6.0854735e-05  -3.6879947e-05  -4.0271970e-05  -2.9341636e-05  -4.1955863e-05  -7.8957809e-05  -3.9842543e-05  -8.2679618e-06  -2.8152398e-05  -1.5279168e-05  -2.3368346e-05  -1.2527964e-04  -5.2321172e-05  -7.7869742e-05   0.0000000e+00  -3.3993253e-05  -2.1975366e-05  -3.3312604e-05  -2.9417375e-05  -3.1091766e-05  -8.1860080e-05  -1.4577660e-05  -3.4682749e-05  -3.2966909e-05  -3.1619641e-05  -1.7614568e-05  -1.1020190e-05  -6.9039777e-05  -2.8604715e-05  -2.8164467e-06  -4.5706365e-05  -3.9978108e-05   0.0000000e+00  -1.7264213e-05  -1.1200358e-04  -9.2472970e-05  -5.7288307e-05  -1.8437435e-05  -7.1543422e-05  -4.7912291e-05  -9.9893664e-05  -8.8593015e-05  -2.3982662e-05  -3.7668372e-05  -6.9331851e-05  -5.4113066e-05  -2.9399857e-05  -7.2937055e-06   2.6987098e-06  -3.5048901e-05  -9.3133492e-08   2.0634944e-05   0.0000000e+00   1.6497925e-05   5.7468822e-06   7.7007607e-06  -3.6748083e-05  -2.7400826e-05  -4.5079562e-05   3.4644106e-05   2.6603845e-05  -1.4657021e-05  -4.3991748e-05  -3.9630345e-05  -3.7049426e-05  -4.4626575e-06  -5.3397516e-05  -1.1691335e-04  -3.5471517e-05  -5.4681373e-05   0.0000000e+00  -2.8993527e-05  -3.4041807e-06  -1.3744228e-05  -1.4864586e-05  -1.4218795e-06  -4.8857016e-05  -5.1820973e-05  -1.0597701e-05  -8.8186250e-06  -9.6083330e-06  -1.3123570e-05  -3.2981321e-05  -4.8681901e-05  -4.0586426e-05  -2.4954686e-05  -2.8844118e-05  -5.9299751e-05  -2.6741585e-05  -6.6374523e-05   0.0000000e+00  -4.2769081e-05  -1.9924271e-06  -1.2302848e-05  -2.9822225e-05  -3.5191436e-05  -8.0139011e-05  -5.0083119e-05  -5.9350262e-05  -3.3492980e-05  -3.0044317e-05  -3.5848570e-05  -1.1152196e-04  -6.4202140e-05  -7.0992510e-05  -1.2352328e-04  -4.4465332e-05  -4.6592716e-05   0.0000000e+00  -1.5556287e-05  -4.5507198e-05  -2.5815334e-05  -3.9309676e-06  -1.6126909e-05  -6.6186895e-05  -3.1149366e-05  -3.8916941e-05  -2.3453999e-05  -1.2034036e-05  -1.1718471e-05  -4.6502517e-05  -4.9136825e-05  -4.9545128e-05  -2.4133620e-05  -4.5344233e-05  -3.1702787e-05  -2.5151351e-05  -4.2419651e-05   0.0000000e+00  -4.7521179e-05   1.1439847e-05   9.2848190e-06  -2.3538092e-05  -3.1181846e-05  -1.0969463e-04  -5.7386658e-05  -8.7653250e-05  -4.7643641e-05  -3.6417745e-05  -2.1809790e-05  -6.1689666e-05  -8.6954847e-05   2.4494013e-04   1.0267989e-04   4.8141001e-05   9.7629471e-05   0.0000000e+00   4.7189949e-05   5.1712681e-05   6.2761702e-05   6.0549491e-05   5.1563914e-05   6.1145877e-05   6.4114234e-05   8.5552240e-05   1.1622633e-04   3.3908058e-05   6.0144289e-05   1.1501236e-04   1.0898825e-04   7.2915281e-05   7.8116931e-05   1.1303242e-04   5.2054414e-05   6.2987182e-05   3.3949975e-05   0.0000000e+00   9.2657413e-06  -4.2154350e-07   1.7129670e-05  -1.5779895e-06  -2.2774121e-06   2.4585642e-05   6.6288978e-05   5.1702418e-05  -1.9210542e-05  -1.2442819e-06   4.4015891e-05  -7.7822701e-05   6.5719887e-05  -3.9108493e-05  -4.3168907e-05  -1.0519669e-04  -4.2646560e-05   0.0000000e+00  -9.4810760e-06  -1.2059108e-05  -5.1063604e-06  -5.2171003e-05  -2.2147838e-05  -8.6347592e-05   1.2320078e-05  -5.7994536e-06   1.2201912e-05   1.2958693e-05  -5.4310374e-05  -5.7488898e-05  -4.1722712e-05   3.1888952e-05   1.2531830e-04   9.9356558e-05  -7.5364944e-05   2.4683412e-05  -6.2273669e-05   0.0000000e+00   7.0044686e-06   4.8745494e-05   9.1786278e-06   1.6038139e-05   3.3775012e-05  -1.2741345e-05   3.7365455e-05  -4.1024643e-05  -4.9507856e-05  -1.3893110e-05   5.4373806e-05  -1.8477123e-04  -4.8759809e-05   8.2767927e-05   2.2947798e-05   4.7467746e-05   1.6771271e-04   0.0000000e+00   3.9709897e-05   5.9455417e-05  -1.4574611e-04  -4.2446828e-05   1.8345769e-04   2.0652676e-04   1.5261204e-04   1.4188951e-04  -4.0618312e-06  -2.6215787e-05   6.0638034e-05   1.7522745e-04   1.9300382e-04   1.4673361e-04   1.7674981e-04   2.5558514e-04   2.0858406e-04   1.5356657e-04   1.8963554e-04   0.0000000e+00   1.9210635e-04   1.7144314e-04   1.1710228e-04   3.9345347e-08  -2.9718389e-05   3.2517913e-05   1.4564558e-04   9.9210966e-05  -2.1586863e-05  -2.4489975e-05  -5.6816966e-05   2.7399617e-05  -9.4217403e-05   2.9306690e-04   4.6581526e-05   3.1450819e-05   1.9162291e-05   0.0000000e+00   3.3296107e-05  -4.3975120e-05  -4.0421855e-05   3.2961139e-05   6.6228177e-05   2.4093570e-05   3.9194206e-05  -1.4928020e-05   1.2025377e-05  -1.6921327e-05   1.2186516e-05   2.6781978e-06  -2.9457169e-05   6.0504977e-05   5.2887064e-05   1.2496295e-04  -6.3268006e-05   4.8768454e-05   3.0571211e-05   0.0000000e+00   6.0038487e-05  -7.5018701e-05  -9.1874196e-06  -9.2200111e-06   1.2772558e-05  -1.2921988e-05   4.8188279e-05   7.8288346e-05  -1.3765572e-05  -1.5374660e-06  -4.7833329e-06   1.4597540e-05  -6.6692317e-05  -1.0391205e-03   7.1390538e-05   1.1602864e-04   6.2063067e-05   0.0000000e+00  -1.2779322e-05  -5.0660836e-05  -6.6441831e-06  -1.3016961e-05   1.5095884e-04   8.5114430e-05  -6.5752623e-06  -2.5301323e-05  -2.0165960e-04  -1.0333572e-04   7.2401153e-05   2.9966947e-04   3.7924463e-04  -3.8214949e-05   1.9055502e-05  -2.4847912e-05  -3.4393821e-05  -4.7436391e-05  -4.2339446e-04   0.0000000e+00  -1.3667113e-04   3.5337743e-04  -2.8005686e-05   2.9493433e-05  -1.8030129e-04  -3.2043540e-04   2.3867935e-04   3.0056648e-04   1.0643787e-04   3.3006850e-05   2.9055085e-06  -5.7776893e-04  -1.2582224e-04
  -1.3828794e-04  -1.4350672e-04  -5.1549265e-05  -1.1003505e-04   0.0000000e+00  -7.6866331e-05  -1.0288028e-04  -7.9034935e-05  -4.6800179e-05  -8.6268172e-05  -1.5699932e-04  -1.1427738e-04  -6.9743218e-05  -5.2997963e-05  -5.0090606e-05  -8.7517583e-05  -1.2753358e-04  -1.6833103e-04  -1.4526166e-04  -1.2686791e-04  -1.0999680e-04  -1.2864135e-04  -8.8507311e-05  -9.0434391e-05   0.0000000e+00  -8.8254953e-05  -1.6738509e-05  -2.9135162e-05  -2.6950106e-05  -1.9723684e-05  -8.5016333e-05  -1.2494631e-04  -1.4032548e-04  -6.9669760e-05  -4.4667057e-05  -1.2777489e-05  -7.4382935e-05  -4.1796467e-05  -3.6478164e-04  -1.2040841e-04  -6.4425280e-05  -1.1533060e-04   0.0000000e+00  -5.8316665e-05  -3.3823770e-05   1.8908318e-05  -1.2305070e-04   9.5168193e-05   8.5252830e-05  -4.8115118e-07  -5.3947013e-04  -3.5876287e-04  -3.5005457e-05  -1.3474649e-05   2.7628117e-04   3.0914914e-04  -6.4898598e-05   2.6529002e-05  -1.4252624e-04  -1.1238358e-04  -2.1117432e-04  -3.0940760e-04   0.0000000e+00  -2.4919234e-04   5.5978901e-05  -6.9343818e-05   1.6157985e-05  -2.4239790e-04  -2.2514911e-04   2.2210385e-04   3.1176488e-04  -6.0754142e-05  -1.1364659e-04   1.9440998e-04  -6.9657260e-04  -2.2913594e-04  -3.8953653e-04  -1.1365091e-04  -7.1855256e-05  -2.1593744e-04   0.0000000e+00  -7.0083828e-05   1.4741722e-04  -5.5538908e-06  -6.9692299e-05  -1.8114276e-04  -1.3998729e-04  -1.3164675e-04   3.2517108e-05   2.7812769e-04  -1.2545822e-04  -4.0835934e-05  -1.4139062e-04  -2.4692952e-04  -2.4858405e-04  -1.4621862e-04  -1.1470424e-04  -1.4981347e-04  -6.2860485e-05  -2.2440153e-04   0.0000000e+00  -9.4678554e-05  -1.1499678e-04  -1.1543130e-04  -8.3128005e-05  -1.3176596e-04  -2.0325619e-04  -1.3891158e-04  -2.0501111e-04  -4.5287071e-05  -5.3420389e-05  -1.6359465e-04  -1.4125841e-04  -5.6408408e-06  -8.1279138e-05  -6.8762419e-05  -3.4933477e-05  -8.7192094e-05   0.0000000e+00  -5.5818161e-05  -5.6211291e-05  -7.1934827e-05  -5.8018414e-05  -8.8139070e-05  -6.3298587e-05  -3.8297540e-05  -3.9303215e-05  -3.1923195e-05  -4.3792390e-05  -8.1797507e-05  -3.9971928e-05  -3.0501671e-06  -2.7280092e-05  -1.3108572e-05  -2.3892208e-05  -1.2713168e-04  -5.4157276e-05  -7.9227049e-05   0.0000000e+00  -3.5749113e-05  -2.3532459e-05  -3.6355442e-05  -2.9936355e-05  -3.2747773e-05  -8.7450100e-05  -1.2056084e-05  -3.1974311e-05  -3.4459102e-05  -3.2990747e-05  -1.7240080e-05  -9.4824282e-06  -7.5170124e-05  -1.0013991e-05   3.2009524e-06  -4.3858966e-05  -3.3512377e-05   0.0000000e+00  -1.2394556e-05  -1.1481775e-04  -9.2083462e-05  -5.6767911e-05  -1.2572810e-05  -6.6739254e-05  -4.1540592e-05  -1.0580633e-04  -9.3989827e-05  -2.3640537e-05  -3.4629074e-05  -6.5469147e-05  -4.7309694e-05  -2.3260632e-05  -3.2314314e-06   9.7802445e-06  -2.9586957e-05   4.6858980e-06   2.7814069e-05   0.0000000e+00   2.2264544e-05   1.1077031e-05   1.2034261e-05  -3.8291218e-05  -2.8474602e-05  -4.4477395e-05   4.2661367e-05   3.5256742e-05  -1.0423036e-05  -4.4696010e-05  -4.3288074e-05  -3.3409085e-05   9.8462874e-07  -5.8974667e-05  -1.2328930e-04  -4.0226689e-05  -5.9180738e-05   0.0000000e+00  -3.0272494e-05  -3.8711197e-06  -1.5285419e-05  -1.6968355e-05  -8.6610440e-07  -5.0630070e-05  -5.6366140e-05  -8.2772299e-06  -8.0484462e-06  -1.0444555e-05  -1.3563533e-05  -3.4084444e-05  -4.8447328e-05  -4.0518886e-05  -2.4156438e-05  -2.9763486e-05  -6.0188951e-05  -2.7244881e-05  -6.9102642e-05   0.0000000e+00  -4.4209706e-05  -4.3187048e-07  -1.2091170e-05  -3.0969053e-05  -3.6917093e-05  -8.3155328e-05  -5.0234644e-05  -5.8972013e-05  -3.2796279e-05  -3.0759584e-05  -4.0673644e-05  -1.0996915e-04  -6.8377037e-05  -6.4501641e-05  -1.2506898e-04  -4.4903353e-05  -4.4826067e-05   0.0000000e+00  -9.2333258e-06  -3.9504755e-05  -2.3817106e-05  -2.8518651e-06  -1.3717624e-05  -6.2489866e-05  -2.4722876e-05  -4.0888219e-05  -2.4563226e-05  -1.1573876e-05  -8.6479846e-06  -4.7862564e-05  -4.8171900e-05  -4.4737032e-05  -2.4450548e-05  -4.6260698e-05  -3.0034439e-05  -2.3626006e-05  -4.0832978e-05   0.0000000e+00  -4.4905121e-05   5.8536963e-06   7.7911311e-06  -2.4653888e-05  -3.3295279e-05  -1.0942288e-04  -5.4619671e-05  -8.5324066e-05  -4.1613044e-05  -3.4332229e-05  -2.8739026e-05  -5.9464762e-05  -8.9765626e-05   2.8014615e-04   1.2714111e-04   5.9434706e-05   1.1086163e-04   0.0000000e+00   6.0267525e-05   6.7961206e-05   7.7202281e-05   7.0554685e-05   6.5745416e-05   8.4085539e-05   8.2378025e-05   9.9721378e-05   1.2932415e-04   4.1413486e-05   7.3397592e-05   1.3542959e-04   1.3233944e-04   9.2097299e-05   9.2327103e-05   1.3090774e-04   7.2950274e-05   7.6941637e-05   5.3421121e-05   0.0000000e+00   2.2723499e-05  -1.0015232e-06   1.8434127e-05   1.9949776e-06   1.3420203e-06   3.5016459e-05   8.3745278e-05   7.1385993e-05  -9.8224739e-06   5.8935858e-06   4.1642473e-05  -7.3778837e-05   7.9356589e-05  -2.7161516e-05  -4.6468728e-05  -1.0941546e-04  -3.5244423e-05   0.0000000e+00  -1.0581274e-05  -3.7892907e-06   2.2441903e-06  -5.3041185e-05  -1.8758711e-05  -9.2415413e-05   1.8745298e-05   3.2998081e-06   1.6918108e-05   1.8136141e-05  -4.8522277e-05  -4.9666021e-05  -2.7257330e-05   4.8288972e-05   1.4630075e-04   1.2121928e-04  -6.6570610e-05   3.4434846e-05  -6.0383544e-05   0.0000000e+00   8.6395873e-06   4.8312691e-05   9.7357188e-06   1.9292426e-05   3.7182425e-05  -9.5014990e-06   4.8288552e-05  -3.6224110e-05  -5.0629356e-05  -1.4080983e-05   5.7257923e-05  -1.9991599e-04  -5.6204532e-05   7.9632688e-05   2.2164381e-05   4.8152617e-05   1.7863122e-04   0.0000000e+00   4.4364240e-05   4.9595767e-05  -1.5301826e-04  -4.6420229e-05   1.8481026e-04   2.1500278e-04   1.6577926e-04   1.3694362e-04  -2.0239756e-05  -3.1003687e-05   5.9936283e-05   1.7920368e-04   2.0098743e-04   1.5582499e-04   1.8555096e-04   2.7479559e-04   2.1835405e-04   1.6263203e-04   1.9910072e-04   0.0000000e+00   2.0551556e-04   1.7910079e-04   1.2185294e-04  -3.0290788e-06  -3.2368031e-05   3.4233177e-05   1.5884738e-04   1.0801767e-04  -2.1847648e-05  -2.4170299e-05  -5.8389315e-05   3.5564173e-05  -9.8846775e-05   3.3258433e-04   5.5131607e-05   3.0868414e-05   4.1366291e-05   0.0000000e+00   3.9968013e-05  -5.0339068e-05  -3.7468028e-05   4.6139445e-05   7.5348703e-05   3.0611966e-05   4.7585381e-05  -7.8917722e-06   1.8662930e-05  -1.8703710e-05   1.8376506e-05   4.1576432e-06  -3.2297441e-05   6.5757373e-05   5.6340934e-05   1.3582949e-04  -7.4460559e-05   5.2696749e-05   3.4171065e-05   0.0000000e+00   6.4501031e-05  -8.5432430e-05  -1.2943141e-05  -1.1167029e-05   1.7885035e-05  -1.3746299e-05   5.5274184e-05   9.1756204e-05  -1.4479613e-05   3.5875252e-07  -3.0306501e-06   1.8173696e-05  -7.6009460e-05  -1.1315633e-03   7.4063302e-05   1.3178034e-04   7.1488486e-05   0.0000000e+00  -1.2484878e-05  -5.0994759e-05   8.2027280e-07  -4.9771187e-06   1.7539212e-04   1.0265841e-04  -4.6535255e-06  -1.9022521e-05  -2.1856228e-04  -1.0733926e-04   8.8498548e-05   3.3786854e-04   4.1343452e-04  -4.1709810e-05   3.2241583e-05  -7.5871888e-06  -3.8101395e-05  -5.1332122e-05  -4.5646954e-04   0.0000000e+00  -1.5424543e-04   3.7030067e-04  -3.6865467e-05   2.8609408e-05  -2.0258433e-04  -3.7133042e-04   2.7179622e-04   3.3344585e-04   1.1208197e-04   3.7621681e-05   2.2625248e-06  -6.4820603e-04  -1.6243587e-04
  -1.5014188e-04  -1.6137090e-04  -5.5917525e-05  -1.1811904e-04   0.0000000e+00  -8.2462046e-05  -1.0841492e-04  -8.4060613e-05  -4.9248441e-05  -9.3964721e-05  -1.7111709e-04  -1.2282734e-04  -7.3956579e-05  -5.4885812e-05  -5.3014394e-05  -9.3213166e-05  -1.3912358e-04  -1.7992133e-04  -1.5555169e-04  -1.3530480e-04  -1.2024848e-04  -1.3808301e-04  -9.4756697e-05  -9.8797995e-05   0.0000000e+00  -9.7655993e-05  -1.8337602e-05  -3.1420104e-05  -3.0343882e-05  -2.3547258e-05  -9.5717412e-05  -1.3344876e-04  -1.4979611e-04  -7.4721992e-05  -4.9107553e-05  -1.4869233e-05  -8.2579378e-05  -4.8910347e-05  -3.2359421e-04  -1.1300437e-04  -3.4784416e-05  -9.3888441e-05   0.0000000e+00  -5.2825309e-05  -5.5580383e-05   2.8755239e-05  -1.1604543e-04   1.4085557e-04   1.1458939e-04   1.7300560e-05  -5.9105133e-04  -4.1357950e-04  -4.0053253e-05  -7.8688946e-06   3.3132016e-04   3.5918282e-04  -5.9513159e-05   4.2582337e-05  -1.2433814e-04  -8.1525967e-05  -2.1652093e-04  -3.2045579e-04   0.0000000e+00  -2.6348886e-04   4.5486610e-05  -9.4742089e-05   1.7777269e-05  -2.7861535e-04  -2.5730890e-04   2.5440337e-04   3.7462337e-04  -9.4591251e-05  -1.2097711e-04   2.3246546e-04  -8.3335574e-04  -2.7131702e-04  -3.9610108e-04  -1.2323724e-04  -7.0056905e-05  -2.2442557e-04   0.0000000e+00  -6.1568513e-05   1.5829300e-04   2.8126295e-05  -6.7278617e-05  -1.7855660e-04  -1.1902534e-04  -1.1506828e-04   3.1091195e-05   2.6546915e-04  -1.1325590e-04  -2.5850022e-05  -1.2942519e-04  -2.1670196e-04  -2.4590912e-04  -1.2936963e-04  -9.8428854e-05  -1.4153948e-04  -5.8902626e-05  -2.2920034e-04   0.0000000e+00  -8.9102842e-05  -1.0977442e-04  -1.2068439e-04  -8.3675755e-05  -1.3455058e-04  -2.1260507e-04  -1.1725819e-04  -1.7790296e-04  -2.8220338e-05  -4.8952234e-05  -1.6889474e-04  -1.4048163e-04   9.4414772e-06  -9.2455039e-05  -6.5203292e-05  -3.3252038e-05  -9.2948542e-05   0.0000000e+00  -5.8293318e-05  -6.0521847e-05  -7.6379896e-05  -6.0759096e-05  -9.4675266e-05  -6.3520885e-05  -3.8108961e-05  -3.7018066e-05  -3.4343049e-05  -4.4538995e-05  -8.2422983e-05  -3.8981954e-05   3.2913076e-06  -2.5066083e-05  -9.9470588e-06  -2.3537411e-05  -1.2476558e-04  -5.4202360e-05  -7.8240427e-05   0.0000000e+00  -3.6268328e-05  -2.4414274e-05  -3.8567053e-05  -2.9778894e-05  -3.3844498e-05  -9.1600106e-05  -8.6217846e-06  -2.8029098e-05  -3.4975799e-05  -3.3675031e-05  -1.6436466e-05  -7.5925220e-06  -7.9996108e-05   1.1797851e-05   1.0624951e-05  -4.0443373e-05  -2.4895966e-05   0.0000000e+00  -6.3839065e-06  -1.1588436e-04  -9.0341249e-05  -5.4922276e-05  -5.1449669e-06  -5.9532252e-05  -3.3289507e-05  -1.1013083e-04  -9.7659486e-05  -2.3122885e-05  -3.0423401e-05  -5.9311168e-05  -3.8310157e-05  -1.5394759e-05   2.1272857e-06   1.8658135e-05  -2.2543899e-05   1.0410303e-05   3.5437033e-05   0.0000000e+00   2.8709346e-05   1.6771287e-05   1.6746539e-05  -3.9298254e-05  -2.9043223e-05  -4.2548211e-05   5.1284003e-05   4.4758055e-05  -6.0234258e-06  -4.4858980e-05  -4.6277367e-05  -2.8064545e-05   7.2313491e-06  -6.3525114e-05  -1.2793782e-04  -4.4734804e-05  -6.2742996e-05   0.0000000e+00  -3.0885946e-05  -3.6978920e-06  -1.6435618e-05  -1.8620007e-05   7.3362052e-09  -5.1327513e-05  -6.0068934e-05  -5.2766701e-06  -7.2410675e-06  -1.0877136e-05  -1.3466024e-05  -3.4550356e-05  -4.7364915e-05  -3.9384854e-05  -2.2607742e-05  -3.0117201e-05  -5.9881828e-05  -2.7072876e-05  -7.0820610e-05   0.0000000e+00  -4.4940725e-05   1.2197337e-06  -1.1459794e-05  -3.1670798e-05  -3.8305108e-05  -8.4563675e-05  -4.9362102e-05  -5.7489561e-05  -3.0926064e-05  -3.0611452e-05  -4.5306280e-05  -1.0645121e-04  -7.1511974e-05  -5.6296784e-05  -1.2481872e-04  -4.5221161e-05  -4.2946622e-05   0.0000000e+00  -2.5800393e-06  -3.2203201e-05  -2.1748798e-05  -2.0429099e-06  -1.1060333e-05  -5.7707156e-05  -1.7629156e-05  -4.2558805e-05  -2.5562457e-05  -1.0878523e-05  -5.1894579e-06  -4.8580758e-05  -4.6544884e-05  -3.8687646e-05  -2.4635616e-05  -4.6792543e-05  -2.8421748e-05  -2.1966145e-05  -3.8880517e-05   0.0000000e+00  -4.1506798e-05  -7.7195406e-07   5.7077607e-06  -2.5297910e-05  -3.5172398e-05  -1.0677948e-04  -5.0727242e-05  -8.1160133e-05  -3.4278797e-05  -3.1298076e-05  -3.5358736e-05  -5.6835221e-05  -9.1610221e-05   3.1326153e-04   1.5304494e-04   7.1138386e-05   1.2305292e-04   0.0000000e+00   7.3704371e-05   8.4609667e-05   9.1665465e-05   8.0007129e-05   8.0232508e-05   1.0805650e-04   1.0094415e-04   1.1407537e-04   1.4114498e-04   4.9156205e-05   8.6814861e-05   1.5565463e-04   1.5629699e-04   1.1211728e-04   1.0709040e-04   1.4866477e-04   9.5823972e-05   9.1556369e-05   7.5467593e-05   0.0000000e+00   3.8336403e-05  -5.7868179e-07   2.0348017e-05   6.4023567e-06   5.8784697e-06   4.7436263e-05   1.0205100e-04   9.2473190e-05   1.3059650e-06   1.4357282e-05   3.8555960e-05  -6.6984508e-05   9.3842499e-05  -1.3751526e-05  -4.9115052e-05  -1.1201282e-04  -2.5800959e-05   0.0000000e+00  -1.0670040e-05   7.8560231e-06   1.2002879e-05  -5.2443014e-05  -1.4377028e-05  -9.4850705e-05   2.6816500e-05   1.3522267e-05   2.1735286e-05   2.3875453e-05  -4.1148865e-05  -4.0402912e-05  -1.1247076e-05   6.5737551e-05   1.6647692e-04   1.4308023e-04  -5.6168610e-05   4.4243296e-05  -5.7550967e-05   0.0000000e+00   1.0459028e-05   4.6195489e-05   9.6622316e-06   2.2978857e-05   4.0712370e-05  -4.9784509e-06   5.9287100e-05  -3.0845069e-05  -5.0472089e-05  -1.3382136e-05   5.9481332e-05  -2.1128455e-04  -6.2384127e-05   7.6196574e-05   2.0997929e-05   4.8693919e-05   1.8694711e-04   0.0000000e+00   4.9140033e-05   3.8697314e-05  -1.6079157e-04  -4.9820691e-05   1.8314529e-04   2.2169460e-04   1.7889906e-04   1.2986494e-04  -3.6152435e-05  -3.7702065e-05   5.8539939e-05   1.8067461e-04   2.0668861e-04   1.6396136e-04   1.9246463e-04   2.9235583e-04   2.2640087e-04   1.7041148e-04   2.0710087e-04   0.0000000e+00   2.1725160e-04   1.8354805e-04   1.2443674e-04  -6.3703895e-06  -3.4710860e-05   3.5520789e-05   1.7189837e-04   1.1697688e-04  -2.0912360e-05  -2.3103170e-05  -6.0048641e-05   4.5248589e-05  -1.0181013e-04   3.7339072e-04   6.5878363e-05   3.0290954e-05   6.6541005e-05   0.0000000e+00   4.7673181e-05  -5.5496420e-05  -3.3313640e-05   5.9963327e-05   8.4873550e-05   3.9206621e-05   5.7551493e-05  -7.9705792e-07   2.5285620e-05  -2.0146184e-05   2.5111298e-05   6.8577139e-06  -3.2947609e-05   7.1784394e-05   6.0425333e-05   1.4649513e-04  -8.4732695e-05   5.6222103e-05   3.8193108e-05   0.0000000e+00   6.9446330e-05  -9.4646820e-05  -1.6162296e-05  -1.2686145e-05   2.3744735e-05  -1.3064769e-05   6.3970157e-05   1.0686639e-04  -1.3427401e-05   2.9625517e-06  -6.7290507e-07   2.2923316e-05  -8.4144155e-05  -1.2116556e-03   7.3668516e-05   1.4561921e-04   7.9351664e-05   0.0000000e+00  -1.3032540e-05  -5.0252073e-05   8.9319014e-06   3.5629074e-06   1.9800810e-04   1.1754477e-04  -4.7641928e-06  -1.1762331e-05  -2.3244427e-04  -1.0910509e-04   1.0399451e-04   3.7231535e-04   4.3953453e-04  -4.6901467e-05   4.4953321e-05   1.1277327e-05  -4.1730150e-05  -5.4919162e-05  -4.8306597e-04   0.0000000e+00  -1.7195845e-04   3.7927927e-04  -4.6676164e-05   2.6853861e-05  -2.2379075e-04  -4.2084788e-04   3.0021006e-04   3.5988998e-04   1.1500736e-04   4.1476003e-05   1.0281495e-06  -7.1262935e-04  -2.0105613e-04
  -1.6022804e-04  -1.7799220e-04  -5.9637288e-05  -1.2473813e-04   0.0000000e+00  -8.7015852e-05  -1.1201940e-04  -8.7688672e-05  -5.0904274e-05  -1.0068199e-04  -1.8355268e-04  -1.2978674e-04  -7.6879162e-05  -5.5551440e-05  -5.5030279e-05  -9.7541759e-05  -1.4915008e-04  -1.8921003e-04  -1.6376132e-04  -1.4181304e-04  -1.2897703e-04  -1.4570555e-04  -9.9625471e-05  -1.0615488e-04   0.0000000e+00  -1.0596612e-04  -1.9661906e-05  -3.3224513e-05  -3.3525259e-05  -2.7288480e-05  -1.0580242e-04  -1.4031828e-04  -1.5757664e-04  -7.8808889e-05  -5.3029980e-05  -1.6936687e-05  -9.0240766e-05  -5.5532005e-05  -2.6297062e-04  -9.6177963e-05   3.2121027e-06  -6.2744556e-05   0.0000000e+00  -4.2280339e-05  -7.9359193e-05   4.0872724e-05  -1.0223229e-04   1.9189083e-04   1.4831564e-04   4.1745864e-05  -6.3274025e-04  -4.6376814e-04  -4.5750477e-05   1.3054988e-06   3.8879903e-04   4.1163452e-04  -4.8259538e-05   6.2978269e-05  -9.5890571e-05  -3.7835664e-05  -2.1376009e-04  -3.2040885e-04   0.0000000e+00  -2.6977113e-04   3.3511949e-05  -1.2118664e-04   1.9280537e-05  -3.1173675e-04  -2.8487120e-04   2.8891004e-04   4.4178576e-04  -1.2935855e-04  -1.2497965e-04   2.7062828e-04  -9.6611630e-04  -3.1051243e-04  -3.8954806e-04  -1.2784086e-04  -6.5535232e-05  -2.2734416e-04   0.0000000e+00  -4.9834925e-05   1.6409820e-04   5.8867878e-05  -6.0780604e-05  -1.7140156e-04  -9.4492209e-05  -9.3211473e-05   2.9946483e-05   2.5224624e-04  -1.0009601e-04  -8.6755317e-06  -1.1420632e-04  -1.8019971e-04  -2.3734817e-04  -1.0563205e-04  -7.3949447e-05  -1.2865045e-04  -5.1507896e-05  -2.2869778e-04   0.0000000e+00  -7.7416490e-05  -1.0054248e-04  -1.2150646e-04  -8.1171718e-05  -1.3464261e-04  -2.1884944e-04  -8.8393272e-05  -1.4271115e-04  -9.0949155e-06  -4.2045138e-05  -1.6924061e-04  -1.3594836e-04   2.2172679e-05  -1.0178918e-04  -5.9004072e-05  -3.0160452e-05  -9.6317659e-05   0.0000000e+00  -5.9120776e-05  -6.3534763e-05  -7.9400828e-05  -6.2017864e-05  -9.9656799e-05  -6.1450766e-05  -3.6246138e-05  -3.3507376e-05  -3.6634580e-05  -4.4169032e-05  -8.0873626e-05  -3.6912476e-05   1.0567664e-05  -2.1528169e-05  -5.8372555e-06  -2.2254353e-05  -1.1820002e-04  -5.2416539e-05  -7.4941999e-05   0.0000000e+00  -3.5471012e-05  -2.4606053e-05  -3.9886019e-05  -2.8971893e-05  -3.4369083e-05  -9.4200445e-05  -4.3725909e-06  -2.3003498e-05  -3.4469626e-05  -3.3649472e-05  -1.5254459e-05  -5.4389477e-06  -8.3370016e-05   3.6330058e-05   1.9337776e-05  -3.5516047e-05  -1.4176799e-05   0.0000000e+00   6.3586616e-07  -1.1529861e-04  -8.7472846e-05  -5.1800987e-05   3.7284347e-06  -5.0041925e-05  -2.3372872e-05  -1.1267555e-04  -9.9422096e-05  -2.2482777e-05  -2.5158765e-05  -5.1024224e-05  -2.7390625e-05  -5.9625603e-06   8.7607679e-06   2.9237631e-05  -1.4140374e-05   1.7026136e-05   4.3404187e-05   0.0000000e+00   3.5765117e-05   2.2571276e-05   2.1692483e-05  -3.9790385e-05  -2.9067919e-05  -3.9297259e-05   6.0297260e-05   5.4911869e-05  -1.7296717e-06  -4.4581717e-05  -4.8497798e-05  -2.0992145e-05   1.4141699e-05  -6.6591709e-05  -1.3079932e-04  -4.8869658e-05  -6.5169431e-05   0.0000000e+00  -3.0758333e-05  -2.7816560e-06  -1.7116820e-05  -1.9687840e-05   1.2868228e-06  -5.0873783e-05  -6.2761436e-05  -1.6646353e-06  -6.4560626e-06  -1.0868736e-05  -1.2779075e-05  -3.4350359e-05  -4.5532366e-05  -3.7217072e-05  -2.0333148e-05  -2.9850799e-05  -5.8455689e-05  -2.6226222e-05  -7.1560463e-05   0.0000000e+00  -4.4961322e-05   2.8427872e-06  -1.0452955e-05  -3.1959467e-05  -3.9389926e-05  -8.4365148e-05  -4.7558718e-05  -5.5061325e-05  -2.8013308e-05  -2.9611526e-05  -4.9594743e-05  -1.0133982e-04  -7.3572121e-05  -4.6794458e-05  -1.2291688e-04  -4.5493967e-05  -4.0969760e-05   0.0000000e+00   4.1266299e-06  -2.3998283e-05  -1.9739608e-05  -1.4869726e-06  -8.1272005e-06  -5.1835101e-05  -1.0041805e-05  -4.3816369e-05  -2.6510697e-05  -9.9050563e-06  -1.3745198e-06  -4.8371057e-05  -4.4007738e-05  -3.1535921e-05  -2.4477868e-05  -4.6878299e-05  -2.6865175e-05  -2.0213582e-05  -3.6704481e-05   0.0000000e+00  -3.7454427e-05  -8.0068547e-06   3.2591132e-06  -2.5380294e-05  -3.6809798e-05  -1.0186419e-04  -4.5944720e-05  -7.5403119e-05  -2.6152211e-05  -2.7535558e-05  -4.1136886e-05  -5.4204826e-05  -9.2610694e-05   3.4325633e-04   1.7983919e-04   8.2824074e-05   1.3380419e-04   0.0000000e+00   8.7008193e-05   1.0108360e-04   1.0573393e-04   8.8595733e-05   9.4553299e-05   1.3224452e-04   1.1910484e-04   1.2831372e-04   1.5143290e-04   5.6930938e-05   9.9997429e-05   1.7514795e-04   1.8011527e-04   1.3227937e-04   1.2202261e-04   1.6581657e-04   1.1999399e-04   1.0646267e-04   9.9482023e-05   0.0000000e+00   5.5677129e-05   1.0470182e-06   2.3021195e-05   1.1576850e-05   1.1297100e-05   6.1817681e-05   1.2055895e-04   1.1420851e-04   1.3721210e-05   2.3913009e-05   3.5122519e-05  -5.7697197e-05   1.0899020e-04   4.7620172e-07  -5.1134086e-05  -1.1305184e-04  -1.4706078e-05   0.0000000e+00  -9.6222296e-06   2.2740856e-05   2.3965427e-05  -5.0494258e-05  -9.1078521e-06  -9.3332075e-05   3.6394418e-05   2.4552611e-05   2.6405403e-05   3.0103978e-05  -3.2629665e-05  -3.0139468e-05   5.7161279e-06   8.3847162e-05   1.8541270e-04   1.6452407e-04  -4.4597859e-05   5.3819969e-05  -5.3807116e-05   0.0000000e+00   1.2527619e-05   4.2474273e-05   8.9015375e-06   2.7148039e-05   4.4402729e-05   9.5519439e-07   7.0233733e-05  -2.4993779e-05  -4.8935424e-05  -1.1643015e-05   6.1043633e-05  -2.1834136e-04  -6.6995156e-05   7.3404294e-05   1.9490496e-05   4.9306642e-05   1.9258892e-04   0.0000000e+00   5.4150461e-05   2.7742108e-05  -1.6918779e-04  -5.2523666e-05   1.7936086e-04   2.2729793e-04   1.9222032e-04   1.2150495e-04  -5.0793946e-05  -4.6220771e-05   5.6844860e-05   1.8031966e-04   2.1061734e-04   1.7150437e-04   1.9796098e-04   3.0857277e-04   2.3320772e-04   1.7722227e-04   2.1406728e-04   0.0000000e+00   2.2764338e-04   1.8512581e-04   1.2515591e-04  -9.7816185e-06  -3.6644752e-05   3.6731566e-05   1.8492444e-04   1.2618614e-04  -1.8623562e-05  -2.1249082e-05  -6.2020920e-05   5.6661539e-05  -1.0288895e-04   4.1487099e-04   7.8758755e-05   3.0110840e-05   9.3640249e-05   0.0000000e+00   5.6279295e-05  -5.8896570e-05  -2.8093859e-05   7.3899846e-05   9.4649626e-05   4.9998453e-05   6.9009529e-05   6.0334878e-06   3.1670435e-05  -2.1079469e-05   3.2289449e-05   1.1086924e-05  -3.0943698e-05   7.8779628e-05   6.5378563e-05   1.5709869e-04  -9.3382202e-05   5.9406247e-05   4.2687865e-05   0.0000000e+00   7.5005556e-05  -1.0219827e-04  -1.8531612e-05  -1.3641242e-05   3.0209061e-05  -1.0781199e-05   7.4204263e-05   1.2328951e-04  -1.0546056e-05   6.1757190e-06   2.2265240e-06   2.8750269e-05  -9.0770748e-05  -1.2783691e-03   7.0182467e-05   1.5710406e-04   8.5253448e-05   0.0000000e+00  -1.4638944e-05  -4.8460572e-05   1.7402044e-05   1.2207257e-05   2.1805943e-04   1.2899417e-04  -7.3168534e-06  -3.7833955e-06  -2.4306788e-04  -1.0868017e-04   1.1836616e-04   4.0208546e-04   4.5666740e-04  -5.4141573e-05   5.6418177e-05   3.0754448e-05  -4.5096903e-05  -5.8195366e-05  -5.0262538e-04   0.0000000e+00  -1.8956899e-04   3.8039779e-04  -5.7110462e-05   2.4359274e-05  -2.4348913e-04  -4.6760916e-04   3.2273969e-04   3.7887029e-04   1.1510621e-04   4.4421314e-05  -8.2806550e-07  -7.6947754e-04  -2.4045229e-04
  -1.6825102e-04  -1.9301580e-04  -6.2677128e-05  -1.2980020e-04   0.0000000e+00  -9.0443978e-05  -1.1357574e-04  -8.9822685e-05  -5.1750396e-05  -1.0630020e-04  -1.9408959e-04  -1.3501092e-04  -7.8420484e-05  -5.4966487e-05  -5.6083154e-05  -1.0042076e-04  -1.5736715e-04  -1.9602212e-04  -1.6970206e-04  -1.4625913e-04  -1.3595220e-04  -1.5141078e-04  -1.0304053e-04  -1.1240071e-04   0.0000000e+00  -1.1302213e-04  -2.0744323e-05  -3.4547710e-05  -3.6440680e-05  -3.0864497e-05  -1.1507322e-04  -1.4544826e-04  -1.6358015e-04  -8.1877671e-05  -5.6370281e-05  -1.8942307e-05  -9.7244326e-05  -6.1493502e-05  -1.8469429e-04  -6.9737966e-05   4.8790601e-05  -2.2245923e-05   0.0000000e+00  -2.6626633e-05  -1.0408177e-04   5.5378462e-05  -8.1599747e-05   2.4699695e-04   1.8578626e-04   7.2640439e-05  -6.6290366e-04  -5.0707024e-04  -5.1877231e-05   1.4416289e-05   4.4726187e-04   4.6538919e-04  -3.0997154e-05   8.7473522e-05  -5.7609445e-05   1.8347791e-05  -2.0246953e-04  -3.0849106e-04   0.0000000e+00  -2.6732401e-04   2.0704753e-05  -1.4757305e-04   2.0818675e-05  -3.4036296e-04  -3.0639453e-04   3.2513224e-04   5.1164077e-04  -1.6337692e-04  -1.2514569e-04   3.0781296e-04  -1.0902895e-03  -3.4502220e-04  -3.6926129e-04  -1.2594797e-04  -5.7894861e-05  -2.2399542e-04   0.0000000e+00  -3.4872792e-05   1.6566759e-04   8.5277101e-05  -4.9867468e-05  -1.5979269e-04  -6.6746480e-05  -6.6188945e-05   2.9806843e-05   2.4059318e-04  -8.6745579e-05   1.0346834e-05  -9.6032331e-05  -1.3852405e-04  -2.2260691e-04  -7.5238864e-05  -4.0999895e-05  -1.1131332e-04  -4.0516078e-05  -2.2282567e-04   0.0000000e+00  -5.9210705e-05  -8.7277638e-05  -1.1742322e-04  -7.5588237e-05  -1.3199090e-04  -2.2187362e-04  -5.2408335e-05  -1.0005410e-04   1.1600804e-05  -3.2623126e-05  -1.6458540e-04  -1.2783043e-04   3.2217829e-05  -1.0892271e-04  -5.0336266e-05  -2.5741060e-05  -9.7249071e-05   0.0000000e+00  -5.8295822e-05  -6.5189271e-05  -8.0941415e-05  -6.1801116e-05  -1.0302251e-04  -5.7152257e-05  -3.2746761e-05  -2.8931949e-05  -3.8839638e-05  -4.2723799e-05  -7.7312090e-05  -3.3862470e-05   1.8528126e-05  -1.6765035e-05  -8.7729691e-07  -2.0044138e-05  -1.0767943e-04  -4.8865913e-05  -6.9487446e-05   0.0000000e+00  -3.3357238e-05  -2.4142383e-05  -4.0309004e-05  -2.7576751e-05  -3.4336657e-05  -9.5211345e-05   5.4200843e-07  -1.7113131e-05  -3.2943858e-05  -3.2923067e-05  -1.3765143e-05  -3.0936378e-06  -8.5213969e-05   6.3012735e-05   2.9180741e-05  -2.9191908e-05  -1.4397677e-06   0.0000000e+00   8.5076156e-06  -1.1318606e-04  -8.3720714e-05  -4.7483707e-05   1.3878967e-05  -3.8444519e-05  -1.2043315e-05  -1.1329328e-04  -9.9172862e-05  -2.1758587e-05  -1.8967458e-05  -4.0861099e-05  -1.4902766e-05   4.8281471e-06   1.6593738e-05   4.1333641e-05  -4.6522273e-06   2.4453233e-05   5.1632202e-05   0.0000000e+00   4.3359104e-05   2.8215361e-05   2.6721067e-05  -3.9807899e-05  -2.8521208e-05  -3.4756536e-05   6.9464122e-05   6.5488755e-05   2.2188450e-06  -4.3966443e-05  -4.9881025e-05  -1.2197092e-05   2.1592211e-05  -6.7750884e-05  -1.3187246e-04  -5.2521487e-05  -6.6295317e-05   0.0000000e+00  -2.9835053e-05  -1.0626523e-06  -1.7283785e-05  -2.0070959e-05   3.0618855e-06  -4.9223680e-05  -6.4307250e-05   2.4659309e-06  -5.7389029e-06  -1.0414128e-05  -1.1477556e-05  -3.3471596e-05  -4.3058152e-05  -3.4083281e-05  -1.7375867e-05  -2.8917946e-05  -5.6033595e-05  -2.4733254e-05  -7.1389918e-05   0.0000000e+00  -4.4287147e-05   4.3218513e-06  -9.1328173e-06  -3.1884821e-05  -4.0208498e-05  -8.2622223e-05  -4.4947442e-05  -5.1873573e-05  -2.4246736e-05  -2.7819586e-05  -5.3403313e-05  -9.5022383e-05  -7.4562772e-05  -3.6441332e-05  -1.1951907e-04  -4.5749691e-05  -3.8834951e-05   0.0000000e+00   1.0642802e-05  -1.5353012e-05  -1.7897395e-05  -1.1214921e-06  -4.8452852e-06  -4.4835217e-05  -2.0922182e-06  -4.4546163e-05  -2.7491477e-05  -8.6102108e-06   2.7768770e-06  -4.6916935e-05  -4.0253030e-05  -2.3416629e-05  -2.3716546e-05  -4.6419070e-05  -2.5286667e-05  -1.8370254e-05  -3.4417823e-05   0.0000000e+00  -3.2860770e-05  -1.5340498e-05   7.3171199e-07  -2.4821828e-05  -3.8201819e-05  -9.4838136e-05  -4.0520245e-05  -6.8331168e-05  -1.7795605e-05  -2.3309537e-05  -4.5548990e-05  -5.1933280e-05  -9.2913761e-05   3.6930070e-04   2.0694847e-04   9.4049775e-05   1.4279359e-04   0.0000000e+00   9.9691452e-05   1.1683969e-04   1.1902850e-04   9.6068951e-05   1.0825884e-04   1.5583658e-04   1.3617440e-04   1.4214117e-04   1.6002165e-04   6.4531629e-05   1.1256248e-04   1.9340859e-04   2.0302334e-04   1.5185356e-04   1.3669740e-04   1.8189296e-04   1.4470663e-04   1.2126968e-04   1.2476024e-04   0.0000000e+00   7.4235712e-05   4.0051742e-06   2.6565223e-05   1.7417781e-05   1.7527825e-05   7.8073810e-05   1.3858063e-04   1.3577684e-04   2.6902271e-05   3.4272337e-05   3.1715034e-05  -4.6274203e-05   1.2462518e-04   1.4798219e-05  -5.2618134e-05  -1.1267125e-04  -2.4528546e-06   0.0000000e+00  -7.4181601e-06   4.0517725e-05   3.7786923e-05  -4.7400063e-05  -3.0917266e-06  -8.7771271e-05   4.7233674e-05   3.6065810e-05   3.0687770e-05   3.6735955e-05  -2.3456778e-05  -1.9317740e-05   2.3044496e-05   1.0222571e-04   2.0279667e-04   1.8521564e-04  -3.2294010e-05   6.2917092e-05  -4.9212932e-05   0.0000000e+00   1.4900323e-05   3.7311079e-05   7.4296695e-06   3.1836041e-05   4.8291888e-05   8.3625776e-06   8.1022539e-05  -1.8778611e-05  -4.5988011e-05  -8.7488861e-06   6.1975399e-05  -2.2075919e-04  -6.9840473e-05   7.2112200e-05   1.7638939e-05   5.0139885e-05   1.9556158e-04   0.0000000e+00   5.9485630e-05   1.7653280e-05  -1.7826679e-04  -5.4497080e-05   1.7445483e-04   2.3253167e-04   2.0592054e-04   1.1271940e-04  -6.3307706e-05  -5.6348147e-05   5.5201381e-05   1.7889422e-04   2.1336148e-04   1.7882567e-04   2.0255659e-04   3.2379308e-04   2.3925338e-04   1.8340914e-04   2.2040601e-04   0.0000000e+00   2.3709639e-04   1.8434196e-04   1.2442087e-04  -1.3078770e-05  -3.8092376e-05   3.8236933e-05   1.9802390e-04   1.3566692e-04  -1.4895252e-05  -1.8629057e-05  -6.4505834e-05   6.9968334e-05  -1.0195605e-04   4.5629966e-04   9.3534619e-05   3.0699752e-05   1.2147889e-04   0.0000000e+00   6.5587039e-05  -6.0077626e-05  -2.1988282e-05   8.7426327e-05   1.0449376e-04   6.2989454e-05   8.1772237e-05   1.2371107e-05   3.7640209e-05  -2.1340547e-05   3.9823290e-05   1.7097478e-05  -2.5949405e-05   8.6889301e-05   7.1391230e-05   1.6778536e-04  -9.9706874e-05   6.2367888e-05   4.7698531e-05   0.0000000e+00   8.1274968e-05  -1.0768969e-04  -1.9770579e-05  -1.3936342e-05   3.7093829e-05  -6.8972860e-06   8.5762418e-05   1.4055247e-04  -5.9326134e-06   9.8497068e-06   5.5546427e-06   3.5479208e-05  -9.5645495e-05  -1.3312829e-03   6.3815582e-05   1.6594173e-04   8.8929829e-05   0.0000000e+00  -1.7443000e-05  -4.5686904e-05   2.5953328e-05   2.0578303e-05   2.3498128e-04   1.3648626e-04  -1.2563716e-05   4.6496795e-06  -2.5036233e-04  -1.0622111e-04   1.3118876e-04   4.2655561e-04   4.6449575e-04  -6.3655826e-05   6.5924548e-05   4.9812815e-05  -4.7969626e-05  -6.1158959e-05  -5.1488643e-04   0.0000000e+00  -2.0679917e-04   3.7420762e-04  -6.7775481e-05   2.1302324e-05  -2.6131392e-04  -5.1037097e-04   3.3855809e-04   3.8980709e-04   1.1242219e-04   4.6357734e-05  -3.3022258e-06  -8.1761171e-04  -2.7934980e-04
  -1.7397942e-04  -2.0614782e-04  -6.5036512e-05  -1.3327505e-04   0.0000000e+00  -9.2701950e-05  -1.1304652e-04  -9.0425202e-05  -5.1802890e-05  -1.1073588e-04  -2.0257278e-04  -1.3841821e-04  -7.8547984e-05  -5.3162553e-05  -5.6156892e-05  -1.0182823e-04  -1.6359433e-04  -2.0026917e-04  -1.7326494e-04  -1.4858712e-04  -1.4101504e-04  -1.5518586e-04  -1.0499437e-04  -1.1747777e-04   0.0000000e+00  -1.1872001e-04  -2.1642528e-05  -3.5417474e-05  -3.9046937e-05  -3.4202130e-05  -1.2335726e-04  -1.4879030e-04  -1.6777424e-04  -8.3913871e-05  -5.9086867e-05  -2.0847713e-05  -1.0348004e-04  -6.6666788e-05  -9.1632388e-05  -3.4050214e-05   1.0074866e-04   2.6715436e-05   0.0000000e+00  -6.1188191e-06  -1.2847904e-04   7.2370756e-05  -5.4489704e-05   3.0463768e-04   2.2611557e-04   1.0932746e-04  -6.8043616e-04  -5.4146187e-04  -5.8054492e-05   3.1687502e-05   5.0512537e-04   5.1913615e-04  -7.9629684e-06   1.1554284e-04  -1.0517259e-05   8.6021208e-05  -1.8266551e-04  -2.8452075e-04   0.0000000e+00  -2.5589434e-04   7.7456619e-06  -1.7273856e-04   2.2616628e-05  -3.6326759e-04  -3.2069287e-04   3.6238999e-04   5.8225892e-04  -1.9496586e-04  -1.2108110e-04   3.4301616e-04  -1.2017543e-03  -3.7335834e-04  -3.3551167e-04  -1.1638251e-04  -4.6814990e-05  -2.1405879e-04   0.0000000e+00  -1.6809732e-05   1.6435961e-04   1.0645079e-04  -3.4457398e-05  -1.4403107e-04  -3.6125845e-05  -3.4286403e-05   3.1274549e-05   2.3227821e-04  -7.3854139e-05   3.0864758e-05  -7.5188701e-05  -9.2755964e-05  -2.0153690e-04  -3.8727221e-05   2.9721802e-07  -8.9865896e-05  -2.5950047e-05  -2.1181982e-04   0.0000000e+00  -3.4443404e-05  -7.0132492e-05  -1.0827929e-04  -6.7110494e-05  -1.2672843e-04  -2.2181737e-04  -9.5891064e-06  -5.0809837e-05   3.3379957e-05  -2.0732163e-05  -1.5524799e-04  -1.1660490e-04   3.9557175e-05  -1.1365133e-04  -3.9498181e-05  -2.0152161e-05  -9.5839503e-05   0.0000000e+00  -5.5911850e-05  -6.5512905e-05  -8.1030951e-05  -6.0202528e-05  -1.0479742e-04  -5.0818039e-05  -2.7759013e-05  -2.3515054e-05  -4.1006021e-05  -4.0314283e-05  -7.2012019e-05  -2.9986915e-05   2.6871821e-05  -1.0955798e-05   4.7808087e-06  -1.6967245e-05  -9.3669345e-05  -4.3719108e-05  -6.2149467e-05   0.0000000e+00  -3.0008377e-05  -2.3101956e-05  -3.9889856e-05  -2.5683113e-05  -3.3788500e-05  -9.4663922e-05   5.9256194e-06  -1.0623960e-05  -3.0450701e-05  -3.1538809e-05  -1.2055140e-05  -6.0617583e-07  -8.5520329e-05   9.1219651e-05   3.9970363e-05  -2.1641781e-05   1.3181353e-05   0.0000000e+00   1.7056046e-05  -1.0970390e-04  -7.9327049e-05  -4.2090824e-05   2.5091993e-05  -2.4964512e-05   4.1889677e-07  -1.1189435e-04  -9.6892813e-05  -2.0975028e-05  -1.2004103e-05  -2.9149177e-05  -1.2511385e-06   1.6731103e-05   2.5498784e-05   5.4680555e-05   5.6053715e-06   3.2587886e-05   6.0055280e-05   0.0000000e+00   5.1414430e-05   3.3454773e-05   3.1685314e-05  -3.9409042e-05  -2.7385184e-05  -2.8988773e-05   7.8535393e-05   7.6241531e-05   5.6329426e-06  -4.3119612e-05  -5.0398288e-05  -1.7223411e-06   2.9478082e-05  -6.6655991e-05  -1.3121505e-04  -5.5604979e-05  -6.6003400e-05   0.0000000e+00  -2.8088084e-05   1.4697415e-06  -1.6927850e-05  -1.9709840e-05   5.4145653e-06  -4.6371146e-05  -6.4606535e-05   7.0015251e-06  -5.1173253e-06  -9.5398028e-06  -9.5692518e-06  -3.1918836e-05  -4.0054334e-05  -3.0084705e-05  -1.3798008e-05  -2.7283642e-05  -5.2784393e-05  -2.2650960e-05  -7.0412473e-05   0.0000000e+00  -4.2947819e-05   5.5534551e-06  -7.5749102e-06  -3.1508504e-05  -4.0794458e-05  -7.9454548e-05  -4.1670189e-05  -4.8130462e-05  -1.9853017e-05  -2.5339752e-05  -5.6623099e-05  -8.7867731e-05  -7.4523823e-05  -2.5697717e-05  -1.1478228e-04  -4.5969456e-05  -3.6421348e-05   0.0000000e+00   1.6764301e-05  -6.7932926e-06  -1.6303080e-05  -8.4795976e-07  -1.1161685e-06  -3.6657723e-05   6.1110364e-06  -4.4655814e-05  -2.8610871e-05  -6.9591254e-06   7.2546738e-06  -4.3908699e-05  -3.4948407e-05  -1.4465943e-05  -2.2064322e-05  -4.5288069e-05  -2.3550062e-05  -1.6402590e-05  -3.2101395e-05   0.0000000e+00  -2.7809700e-05  -2.2227394e-05  -1.5579365e-06  -2.3555343e-05  -3.9344745e-05  -8.5934392e-05  -3.4698619e-05  -6.0243228e-05  -9.7822807e-06  -1.8909128e-05  -4.8114487e-05  -5.0302884e-05  -9.2682924e-05   3.9079990e-04   2.3380253e-04   1.0438999e-04   1.4979830e-04   0.0000000e+00   1.1130429e-04   1.3139086e-04   1.3122317e-04   1.0224571e-04   1.2094751e-04   1.7806360e-04   1.5153095e-04   1.5529211e-04   1.6684288e-04   7.1758771e-05   1.2417204e-04   2.0999896e-04   2.2427278e-04   1.7011499e-04   1.5067433e-04   1.9646582e-04   1.6917464e-04   1.3558060e-04   1.5053848e-04   0.0000000e+00   9.3439953e-05   8.3455182e-06   3.1039428e-05   2.3792397e-05   2.4469518e-05   9.6064484e-05   1.5542329e-04   1.5634869e-04   4.0292484e-05   4.5104601e-05   2.8687060e-05  -3.3148742e-05   1.4059474e-04   2.8415530e-05  -5.3716149e-05  -1.1108560e-04   1.0386311e-05   0.0000000e+00  -4.1384713e-06   6.0669217e-05   5.3001256e-05  -4.3447872e-05   3.5069994e-06  -7.8319882e-05   5.8992596e-05   4.7764873e-05   3.4364617e-05   4.3682785e-05  -1.4157187e-05  -8.3442574e-06   4.0193935e-05   1.2049794e-04   2.1842947e-04   2.0491883e-04  -1.9703155e-05   7.1334676e-05  -4.3866583e-05   0.0000000e+00   1.7613833e-05   3.0930152e-05   5.2578762e-06   3.7072473e-05   5.2405329e-05   1.7224388e-05   9.1566424e-05  -1.2321484e-05  -4.1673922e-05  -4.6442328e-06   6.2341380e-05  -2.1843288e-04  -7.0816245e-05   7.3000682e-05   1.5398948e-05   5.1245321e-05   1.9591761e-04   0.0000000e+00   6.5175079e-05   9.1948338e-06  -1.8802923e-04  -5.5801223e-05   1.6943686e-04   2.3805587e-04   2.2009055e-04   1.0428810e-04  -7.3059941e-05  -6.7780714e-05   5.3913507e-05   1.7717008e-04   2.1553580e-04   1.8625053e-04   2.0679742e-04   3.3837262e-04   2.4496018e-04   1.8930832e-04   2.2647805e-04   0.0000000e+00   2.4603898e-04   1.8184009e-04   1.2271583e-04  -1.6097612e-05  -3.9006004e-05   4.0413084e-05   2.1123362e-04   1.4535317e-04  -9.7329600e-06  -1.5328006e-05  -6.7665055e-05   8.5262921e-05  -9.8973901e-05   4.9687868e-04   1.0980618e-04   3.2372808e-05   1.4882378e-04   0.0000000e+00   7.5347123e-05  -5.8709092e-05  -1.5208666e-05   1.0005814e-04   1.1420044e-04   7.8056217e-05   9.5562682e-05   1.8093541e-05   4.3066047e-05  -2.0792112e-05   4.7639748e-05   2.5061247e-05  -1.7787860e-05   9.6181302e-05   7.8586271e-05   1.7869781e-04  -1.0305996e-04   6.5274294e-05   5.3266647e-05   0.0000000e+00   8.8312855e-05  -1.1081227e-04  -1.9651673e-05  -1.3523843e-05   4.4186386e-05  -1.5123275e-06   9.8301269e-05   1.5806715e-04   1.6708709e-07   1.3801791e-05   9.1545552e-06   4.2874793e-05  -9.8622466e-05  -1.3705583e-03   5.5003073e-05   1.7199484e-04   9.0256502e-05   0.0000000e+00  -2.1504705e-05  -4.2035058e-05   3.4339320e-05   2.8352884e-05   2.4841153e-04   1.3977208e-04  -2.0567136e-05   1.3295118e-05  -2.5441695e-04  -1.0198387e-04   1.4217276e-04   4.4543237e-04   4.6324706e-04  -7.5522916e-05   7.2877442e-05   6.7432689e-05  -5.0086213e-05  -6.3796995e-05  -5.1989709e-04   0.0000000e+00  -2.2332757e-04   3.6168291e-04  -7.8216262e-05   1.7891151e-05  -2.7698304e-04  -5.4807642e-04   3.4723544e-04   3.9258781e-04   1.0714740e-04   4.7258116e-05  -6.3600270e-06  -8.5635368e-04  -3.1649318e-04
  -1.7725468e-04  -2.1715823e-04  -6.6741942e-05  -1.3518652e-04   0.0000000e+00  -9.3781428e-05  -1.1047481e-04  -8.9520804e-05  -5.1107982e-05  -1.1394127e-04  -2.0890896e-04  -1.3998828e-04  -7.7287483e-05  -5.0232169e-05  -5.5272468e-05  -1.0179766e-04  -1.6772070e-04  -2.0195001e-04  -1.7442079e-04  -1.4881575e-04  -1.4408289e-04  -1.5709487e-04  -1.0554035e-04  -1.2137019e-04   0.0000000e+00  -1.2301581e-04  -2.2431103e-05  -3.5885877e-05  -4.1309429e-05  -3.7237251e-05  -1.3050633e-04  -1.5035037e-04  -1.7017343e-04  -8.4938100e-05  -6.1158026e-05  -2.2612410e-05  -1.0885040e-04  -7.0967435e-05   1.2450091e-05   9.9682486e-06   1.5750121e-04   8.2727824e-05   0.0000000e+00   1.8682981e-05  -1.5114522e-04   9.1938141e-05  -2.1586153e-05   3.6308683e-04   2.6820756e-04   1.5073381e-04  -6.8480732e-04  -5.6524869e-04  -6.3754076e-05   5.3160694e-05   5.6076060e-04   5.7142700e-04   2.0231830e-05   1.4640130e-04   4.3809280e-05   1.6353413e-04  -1.5480671e-04  -2.4891325e-04   0.0000000e+00  -2.3571352e-04  -4.6882582e-06  -1.9553634e-04   2.4969556e-05  -3.7945180e-04  -3.2689717e-04   3.9983369e-04   6.5147177e-04  -2.2253536e-04  -1.1252182e-04   3.7538745e-04  -1.2970299e-03  -3.9431762e-04  -2.8953589e-04  -9.8415984e-05  -3.2097575e-05  -1.9764644e-04   0.0000000e+00   4.0564919e-06   1.6188773e-04   1.2204103e-04  -1.4755560e-05  -1.2459268e-04  -2.9697136e-06   1.9973134e-06   3.4754611e-05   2.2857481e-04  -6.1941672e-05   5.2513918e-05  -5.1949102e-05  -4.3893514e-05  -1.7415485e-04   3.0749021e-06   4.9385950e-05  -6.4807585e-05  -8.0329725e-06  -1.9621173e-04   0.0000000e+00  -3.4700594e-06  -4.9444433e-05  -9.4255948e-05  -5.6117997e-05  -1.1918749e-04  -2.1909933e-04   3.9558350e-05   3.9020395e-06   5.5763291e-05  -6.5426999e-06  -1.4188138e-04  -1.0304968e-04   4.4444552e-05  -1.1593893e-04  -2.6900442e-05  -1.3616714e-05  -9.2323309e-05   0.0000000e+00  -5.2153339e-05  -6.4616558e-05  -7.9782794e-05  -5.7392571e-05  -1.0508550e-04  -4.2755249e-05  -2.1531204e-05  -1.7533419e-05  -4.3179832e-05  -3.7115218e-05  -6.5335523e-05  -2.5489812e-05   3.5261034e-05  -4.3517462e-06   1.0933587e-05  -1.3140896e-05  -7.6837653e-05  -3.7240426e-05  -5.3302931e-05   0.0000000e+00  -2.5583613e-05  -2.1601115e-05  -3.8731469e-05  -2.3410183e-05  -3.2791283e-05  -9.2660721e-05   1.1545244e-05  -3.8399798e-06  -2.7085672e-05  -2.9571652e-05  -1.0222159e-05   1.9978658e-06  -8.4350264e-05   1.2029041e-04   5.1500046e-05  -1.3083632e-05   2.9502501e-05   0.0000000e+00   2.6093528e-05  -1.0501997e-04  -7.4519937e-05  -3.5772300e-05   3.7110953e-05  -9.8709784e-06   1.3716847e-05  -1.0845682e-04  -9.2653451e-05  -2.0144030e-05  -4.4432480e-06  -1.6275733e-05   1.3124010e-05   2.9469612e-05   3.5294964e-05   6.8936116e-05   1.6291007e-05   4.1301563e-05   6.8619085e-05   0.0000000e+00   5.9845103e-05   3.8068278e-05   3.6448441e-05  -3.8668823e-05  -2.5653594e-05  -2.2078888e-05   8.7263889e-05   8.6907202e-05   8.3839785e-06  -4.2137797e-05  -5.0063829e-05   1.0351410e-05   3.7719340e-05  -6.3081901e-05  -1.2894494e-04  -5.8065302e-05  -6.4240118e-05   0.0000000e+00  -2.5523678e-05   4.7756315e-06  -1.6082318e-05  -1.8592144e-05   8.4090124e-06  -4.2350067e-05  -6.3605215e-05   1.1810373e-05  -4.5989086e-06  -8.3022693e-06  -7.0948816e-06  -2.9716042e-05  -3.6632618e-05  -2.5349918e-05  -9.6790984e-06  -2.4932141e-05  -4.8915808e-05  -2.0063122e-05  -6.8763306e-05   0.0000000e+00  -4.0990468e-05   6.4560233e-06  -5.8614610e-06  -3.0901705e-05  -4.1176532e-05  -7.5031488e-05  -3.7880948e-05  -4.4041527e-05  -1.5078057e-05  -2.2314463e-05  -5.9182305e-05  -8.0201091e-05  -7.3525003e-05  -1.5011657e-05  -1.0885886e-04  -4.6091050e-05  -3.3569715e-05   0.0000000e+00   2.2334420e-05   1.1206443e-06  -1.5017368e-05  -5.4982267e-07   3.1677174e-06  -2.7262703e-05   1.4488121e-05  -4.4093848e-05  -2.9995388e-05  -4.9360124e-06   1.2049504e-05  -3.9080597e-05  -2.7782356e-05  -4.8198921e-06  -1.9244971e-05  -4.3343194e-05  -2.1474894e-05  -1.4255372e-05  -2.9802560e-05   0.0000000e+00  -2.2368645e-05  -2.8123499e-05  -3.2850889e-06  -2.1532996e-05  -4.0238220e-05  -7.5434901e-05  -2.8707386e-05  -5.1440897e-05  -2.6578776e-06  -1.4628987e-05  -4.8436928e-05  -4.9496257e-05  -9.2106339e-05   4.0742466e-04   2.5985969e-04   1.1345794e-04   1.5469166e-04   0.0000000e+00   1.2145644e-04   1.4434002e-04   1.4206245e-04   1.0702148e-04   1.3228174e-04   1.9824214e-04   1.6464517e-04   1.6752787e-04   1.7192156e-04   7.8430105e-05   1.3454570e-04   2.2456102e-04   2.4317101e-04   1.8638070e-04   1.6351829e-04   2.0916790e-04   1.9262025e-04   1.4901269e-04   1.7603862e-04   0.0000000e+00   1.1269947e-04   1.4031151e-05   3.6442915e-05   3.0544800e-05   3.1994020e-05   1.1559490e-04   1.7043160e-04   1.7512934e-04   5.3340830e-05   5.6058126e-05   2.6341216e-05  -1.8797715e-05   1.5677627e-04   4.0508528e-05  -5.4619270e-05  -1.0856641e-04   2.3185128e-05   0.0000000e+00   2.5908472e-08   8.2519689e-05   6.9062947e-05  -3.8982762e-05   1.0510647e-05  -6.5350968e-05   7.1255786e-05   5.9369029e-05   3.7258338e-05   5.0842968e-05  -5.2606556e-06   2.4261681e-06   5.6668303e-05   1.3831668e-04   2.3222844e-04   2.2347761e-04  -7.2637558e-06   7.8912324e-05  -3.7937699e-05   0.0000000e+00   2.0648664e-05   2.3592654e-05   2.4258770e-06   4.2849880e-05   5.6760019e-05   2.7420475e-05   1.0177631e-04  -5.7818352e-06  -3.6124572e-05   6.5871791e-07   6.2237006e-05  -2.1148848e-04  -6.9928894e-05   7.6490231e-05   1.2677274e-05   5.2565136e-05   1.9373738e-04   0.0000000e+00   7.1183070e-05   2.9091049e-06  -1.9845824e-04  -5.6607981e-05   1.6524190e-04   2.4440998e-04   2.3469975e-04   9.6851831e-05  -7.9693577e-05  -8.0143730e-05   5.3175027e-05   1.7586867e-04   2.1772027e-04   1.9403880e-04   2.1117190e-04   3.5262156e-04   2.5065513e-04   1.9521045e-04   2.3254955e-04   0.0000000e+00   2.5486629e-04   1.7833477e-04   1.2055830e-04  -1.8727303e-05  -3.9379348e-05   4.3584587e-05   2.2452057e-04   1.5508424e-04  -3.2492959e-06  -1.1493343e-05  -7.1611272e-05   1.0256212e-04  -9.4003607e-05   5.3579446e-04   1.2703589e-04   3.5355796e-05   1.7448737e-04   0.0000000e+00   8.5272729e-05  -5.4628230e-05  -7.9975396e-06   1.1138418e-04   1.2355393e-04   9.4951381e-05   1.1002559e-04   2.3187956e-05   4.7881102e-05  -1.9336019e-05   5.5680049e-05   3.5044424e-05  -6.4636053e-06   1.0664360e-04   8.7001357e-05   1.8994662e-04  -1.0289689e-04   6.8328874e-05   5.9432749e-05   0.0000000e+00   9.6138099e-05  -1.1136915e-04  -1.8018109e-05  -1.2411765e-05   5.1260349e-05   5.1991478e-06   1.1136531e-04   1.7516784e-04   7.3756582e-06   1.7827591e-05   1.2834210e-05   5.0676650e-05  -9.9645874e-05  -1.3968849e-03   4.4369690e-05   1.7528820e-04   8.9251558e-05   0.0000000e+00  -2.6791816e-05  -3.7651730e-05   4.2352232e-05   3.5272619e-05   2.5820335e-04   1.3889953e-04  -3.1202567e-05   2.1933338e-05  -2.5546954e-04  -9.6299830e-05   1.5116093e-04   4.5875065e-04   4.5367848e-04  -8.9668644e-05   7.6828660e-05   8.2678527e-05  -5.1165001e-05  -6.6085717e-05  -5.1798583e-04   0.0000000e+00  -2.3879371e-04   3.4414249e-04  -8.7950191e-05   1.4357848e-05  -2.9030972e-04  -5.7990983e-04   3.4875538e-04   3.8756532e-04   9.9613309e-05   4.7151843e-05  -9.9254900e-06  -8.8549253e-04  -3.5070324e-04
  -1.7798998e-04  -2.2587871e-04  -6.7838747e-05  -1.3560401e-04   0.0000000e+00  -9.3708459e-05  -1.0598531e-04  -8.7191926e-05  -4.9735389e-05  -1.1589953e-04  -2.1306241e-04  -1.3976084e-04  -7.4720679e-05  -4.6321206e-05  -5.3488258e-05  -1.0041529e-04  -1.6970536e-04  -2.0114525e-04  -1.7321907e-04  -1.4703124e-04  -1.4514790e-04  -1.5726578e-04  -1.0478496e-04  -1.2409742e-04   0.0000000e+00  -1.2591761e-04  -2.3190989e-05  -3.6020840e-05  -4.3200459e-05  -3.9915695e-05  -1.3639815e-04  -1.5018335e-04  -1.7083296e-04  -8.5001154e-05  -6.2580626e-05  -2.4194218e-05  -1.1327077e-04  -7.4352278e-05   1.2313986e-04   6.0897999e-05   2.1715278e-04   1.4394743e-04   0.0000000e+00   4.6938674e-05  -1.7061017e-04   1.1415929e-04   1.6128056e-05   4.2051042e-04   3.1080886e-04   1.9541294e-04  -6.7607267e-04  -5.7714941e-04  -6.8317550e-05   7.8697601e-05   6.1258324e-04   6.2073495e-04   5.2614397e-05   1.7903356e-04   1.0331872e-04   2.4864576e-04  -1.1977502e-04  -2.0265458e-04   0.0000000e+00  -2.0748928e-04  -1.5977844e-05  -2.1490534e-04   2.8229535e-05  -3.8819545e-04  -3.2449959e-04   4.3647779e-04   7.1698086e-04  -2.4467861e-04  -9.9339281e-05   4.0428887e-04  -1.3734269e-03  -4.0705117e-04  -2.3352463e-04  -7.1866699e-05  -1.3715800e-05  -1.7532468e-04   0.0000000e+00   2.7257222e-05   1.6013918e-04   1.3223094e-04   8.7492978e-06  -1.0213008e-04   3.2366644e-05   4.1946017e-05   4.0410882e-05   2.3017354e-04  -5.1381696e-05   7.4941818e-05  -2.6577518e-05   7.1735218e-06  -1.4069694e-04   4.9056735e-05   1.0526757e-04  -3.6775241e-05   1.2823298e-05  -1.7682160e-04   0.0000000e+00   3.2957459e-05  -2.5735910e-05  -7.5870272e-05  -4.3153562e-05  -1.0988855e-04  -2.1439443e-04   9.4312161e-05   6.2746180e-05   7.8284999e-05   9.6401103e-06  -1.2544591e-04  -8.8173081e-05   4.7369738e-05  -1.1591686e-04  -1.3047526e-05  -6.4154475e-06  -8.7053498e-05   0.0000000e+00  -4.7285274e-05  -6.2684384e-05  -7.7387863e-05  -5.3608489e-05  -1.0405773e-04  -3.3365809e-05  -1.4400740e-05  -1.1302852e-05  -4.5403459e-05  -3.3355207e-05  -5.7711702e-05  -2.0613832e-05   4.3337609e-05   2.7346613e-06   1.7335218e-05  -8.7376081e-06  -5.8026036e-05  -2.9775545e-05  -4.3406912e-05   0.0000000e+00  -2.0311808e-05  -1.9780610e-05  -3.6976540e-05  -2.0892897e-05  -3.1432297e-05  -8.9368110e-05   1.7141278e-05   2.9119564e-06  -2.2980360e-05  -2.7123761e-05  -8.3711729e-06   4.7125839e-06  -8.1826781e-05   1.4953896e-04   6.3553455e-05  -3.7719555e-06   4.7283665e-05   0.0000000e+00   3.5423576e-05  -9.9313040e-05  -6.9506914e-05  -2.8713217e-05   4.9649604e-05   6.5287018e-06   2.7543341e-05  -1.0303762e-04  -8.6618315e-05  -1.9268025e-05   3.5305434e-06  -2.6720364e-06   2.7765453e-05   4.2746770e-05   4.5759396e-05   8.3699165e-05   2.7058823e-05   5.0445361e-05   7.7275583e-05   0.0000000e+00   6.8562352e-05   4.1875328e-05   4.0892094e-05  -3.7670684e-05  -2.3337744e-05  -1.4133817e-05   9.5416601e-05   9.7217421e-05   1.0408586e-05  -4.1104932e-05  -4.8930363e-05   2.3900763e-05   4.6264158e-05  -5.6958852e-05  -1.2523825e-04  -5.9882926e-05  -6.1026075e-05   0.0000000e+00  -2.2184701e-05   8.7663015e-06  -1.4822146e-05  -1.6759060e-05   1.2083997e-05  -3.7240378e-05  -6.1299461e-05   1.6743823e-05  -4.1750889e-06  -6.7855561e-06  -4.1315898e-06  -2.6907061e-05  -3.2898148e-05  -2.0031962e-05  -5.1136856e-06  -2.1874836e-05  -4.4670979e-05  -1.7079100e-05  -6.6607640e-05   0.0000000e+00  -3.8475970e-05   6.9754255e-06  -4.0765630e-06  -3.0139830e-05  -4.1377451e-05  -6.9568362e-05  -3.3736654e-05  -3.9810826e-05  -1.0167439e-05  -1.8913455e-05  -6.1053096e-05  -7.2284428e-05  -7.1664470e-05  -4.8027041e-06  -1.0190075e-04  -4.6019762e-05  -3.0111641e-05   0.0000000e+00   2.7244216e-05   7.8272175e-06  -1.4080944e-05  -1.0088590e-07   8.1062667e-06  -1.6652924e-05   2.2963072e-05  -4.2867027e-05  -3.1789127e-05  -2.5522145e-06   1.7142657e-05  -3.2249388e-05  -1.8505587e-05   5.3756286e-06  -1.5018327e-05  -4.0446907e-05  -1.8868655e-05  -1.1858895e-05  -2.7539424e-05   0.0000000e+00  -1.6580623e-05  -3.2534073e-05  -4.1482851e-06  -1.8736447e-05  -4.0881241e-05  -6.3676135e-05  -2.2745429e-05  -4.2212519e-05   3.0985173e-06  -1.0753355e-05  -4.6241615e-05  -4.9586576e-05  -9.1375558e-05   4.1909842e-04   2.8463340e-04   1.2093082e-04   1.5745046e-04   0.0000000e+00   1.2984050e-04   1.5539131e-04   1.5136725e-04   1.1036863e-04   1.4199978e-04   2.1580565e-04   1.7510799e-04   1.7865095e-04   1.7536856e-04   8.4386204e-05   1.4347105e-04   2.3682587e-04   2.5911996e-04   2.0005141e-04   1.7481710e-04   2.1970710e-04   2.1432196e-04   1.6121313e-04   2.0051873e-04   0.0000000e+00   1.3143014e-04   2.0936275e-05   4.2711970e-05   3.7502635e-05   3.9949979e-05   1.3642475e-04   1.8302565e-04   1.9140097e-04   6.5533435e-05   6.6782648e-05   2.4907739e-05  -3.7094505e-06   1.7308282e-04   5.0280608e-05  -5.5539548e-05  -1.0543328e-04   3.5302151e-05   0.0000000e+00   4.7990458e-06   1.0529184e-04   8.5362489e-05  -3.4378798e-05   1.7734276e-05  -4.9433705e-05   8.3563396e-05   7.0651041e-05   3.9232844e-05   5.8101477e-05   2.7363785e-06   1.2704244e-05   7.2045436e-05   1.5535184e-04   2.4422202e-04   2.4081594e-04   4.5948327e-06   8.5531947e-05  -3.1652757e-05   0.0000000e+00   2.3947351e-05   1.5576906e-05  -1.0155782e-06   4.9124024e-05   6.1355394e-05   3.8720787e-05   1.1154674e-04   6.3552307e-07  -2.9556008e-05   7.0729911e-06   6.1774874e-05  -2.0027299e-04  -6.7293550e-05   8.2719615e-05   9.3553632e-06   5.3937091e-05   1.8912632e-04   0.0000000e+00   7.7394526e-05  -9.4427135e-07  -2.0951575e-04  -5.7198381e-05   1.6264461e-04   2.5193704e-04   2.4959753e-04   9.0872600e-05  -8.3152473e-05  -9.3028374e-05   5.3083480e-05   1.7559108e-04   2.2041296e-04   2.0234314e-04   2.1609383e-04   3.6678811e-04   2.5653470e-04   2.0133218e-04   2.3877914e-04   0.0000000e+00   2.6392358e-04   1.7455165e-04   1.1845235e-04  -2.0906438e-05  -3.9231733e-05   4.7994807e-05   2.3778486e-04   1.6461628e-04   4.3510166e-06  -7.3367085e-06  -7.6400817e-05   1.2176716e-04  -8.7223229e-05   5.7226263e-04   1.4458007e-04   3.9760441e-05   1.9741701e-04   0.0000000e+00   9.5060524e-05  -4.7857625e-05  -6.1706664e-07   1.2108772e-04   1.3234248e-04   1.1330779e-04   1.2474329e-04   2.7746481e-05   5.2073031e-05  -1.6924296e-05   6.3891200e-05   4.6986877e-05   7.8275123e-06   1.1816947e-04   9.6581786e-05   2.0160284e-04  -9.8824466e-05   7.1752697e-05   6.6233500e-05   0.0000000e+00   1.0472715e-04  -1.0929119e-04  -1.4790381e-05  -1.0660334e-05   5.8095112e-05   1.3008834e-05   1.2441787e-04   1.9115850e-04   1.5217838e-05   2.1715546e-05   1.6373285e-05   5.8624402e-05  -9.8757847e-05  -1.4114193e-03   3.2696144e-05   1.7598705e-04   8.6077763e-05   0.0000000e+00  -3.3177343e-05  -3.2711820e-05   4.9826283e-05   4.1154907e-05   2.6443406e-04   1.3418187e-04  -4.4168093e-05   3.0381478e-05  -2.5388558e-04  -8.9558640e-05   1.5813751e-04   4.6684534e-04   4.3700072e-04  -1.0585780e-04   7.7498805e-05   9.4744957e-05  -5.0931781e-05  -6.7982326e-05  -5.0974804e-04   0.0000000e+00  -2.5280209e-04   3.2315767e-04  -9.6488236e-05   1.0933800e-05  -3.0119659e-04  -6.0531029e-04   3.4350134e-04   3.7551299e-04   9.0262236e-05   4.6128112e-05  -1.3893725e-05  -9.0527628e-04  -3.8095678e-04
  -1.7617131e-04  -2.3220020e-04  -6.8383677e-05  -1.3463260e-04   0.0000000e+00  -9.2538574e-05  -9.9773499e-05  -8.3571132e-05  -4.7774338e-05  -1.1662041e-04  -2.1504913e-04  -1.3782871e-04  -7.0979630e-05  -4.1620402e-05  -5.0893486e-05  -9.7810431e-05  -1.6957631e-04  -1.9800713e-04  -1.6978151e-04  -1.4338082e-04  -1.4427224e-04  -1.5587769e-04  -1.0287592e-04  -1.2570748e-04   0.0000000e+00  -1.2748191e-04  -2.4000289e-05  -3.5898080e-05  -4.4698971e-05  -4.2192456e-05  -1.4093231e-04  -1.4838622e-04  -1.6984111e-04  -8.4178240e-05  -6.3364558e-05  -2.5547890e-05  -1.1667026e-04  -7.6815995e-05   2.3570273e-04   1.1689888e-04   2.7759078e-04   2.0818450e-04   0.0000000e+00   7.7573197e-05  -1.8542557e-04   1.3911580e-04   5.7427586e-05   4.7506099e-04   3.5256657e-04   2.4163514e-04  -6.5486641e-04  -5.7635883e-04  -7.0998411e-05   1.0796692e-04   6.5914401e-04   6.6554795e-04   8.7902361e-05   2.1224124e-04   1.6559198e-04   3.3862089e-04  -7.8830599e-05  -1.4724339e-04   0.0000000e+00  -1.7236719e-04  -2.5591573e-05  -2.2993779e-04   3.2775796e-05  -3.8908605e-04  -3.1337592e-04   4.7123679e-04   7.7647725e-04  -2.6023908e-04  -8.1542426e-05   4.2934613e-04  -1.4291384e-03  -4.1110247e-04  -1.7053044e-04  -3.7161370e-05   8.1629029e-06  -1.4811737e-04   0.0000000e+00   5.2149859e-05   1.6093898e-04   1.3767642e-04   3.5288702e-05  -7.7453847e-05   6.9479499e-05   8.4640783e-05   4.8145167e-05   2.3715753e-04  -4.2392003e-05   9.7815122e-05   6.7247159e-07   5.9685912e-05  -1.0164248e-04   9.7865190e-05   1.6652331e-04  -6.5362013e-06   3.6023824e-05  -1.5469529e-04   0.0000000e+00   7.3739580e-05   3.2108377e-07  -5.3944698e-05  -2.8909191e-05  -9.9512278e-05  -2.0858851e-04   1.5372398e-04   1.2421621e-04   1.0050132e-04   2.7381070e-05  -1.0714018e-04  -7.3179544e-05   4.8968222e-05  -1.1387415e-04   1.4893757e-06   1.1305945e-06  -8.0477344e-05   0.0000000e+00  -4.1634885e-05  -5.9961613e-05  -7.4100986e-05  -4.9136938e-05  -1.0193799e-04  -2.3119761e-05  -6.7771319e-06  -5.1629201e-06  -4.7711104e-05  -2.9304379e-05  -4.9606734e-05  -1.5627800e-05   5.0741769e-05   9.9469575e-06   2.3706295e-05  -3.9813553e-06  -3.8206738e-05  -2.1734445e-05  -3.2979894e-05   0.0000000e+00  -1.4479645e-05  -1.7794660e-05  -3.4795028e-05  -1.8279893e-05  -2.9815738e-05  -8.5009592e-05   2.2444101e-05   9.2989763e-06  -1.8294946e-05  -2.4319278e-05  -6.6106568e-06   7.5417796e-06  -7.8130542e-05   1.7828082e-04   7.5906130e-05   6.0092363e-06   6.6220963e-05   0.0000000e+00   4.4845415e-05  -9.2758275e-05  -6.4469172e-05  -2.1124696e-05   6.2395055e-05   2.3899772e-05   4.1594724e-05  -9.5775564e-05  -7.9038198e-05  -1.8343652e-05   1.1716358e-05   1.1205374e-05   4.2227470e-05   5.6251545e-05   5.6630119e-05   9.8525210e-05   3.7575053e-05   5.9848908e-05   8.5972591e-05   0.0000000e+00   7.7470232e-05   4.4750197e-05   4.4919822e-05  -3.6501598e-05  -2.0464706e-05  -5.2818065e-06   1.0279079e-04   1.0690796e-04   1.1710657e-05  -4.0093054e-05  -4.7086006e-05   3.8757743e-05   5.5090922e-05  -4.8398733e-05  -1.2032506e-04  -6.1075525e-05  -5.6462924e-05   0.0000000e+00  -1.8154727e-05   1.3305240e-05  -1.3261008e-05  -1.4303708e-05   1.6440744e-05  -3.1169351e-05  -5.7745102e-05   2.1640099e-05  -3.8232677e-06  -5.0957401e-06  -7.8873773e-07  -2.3557794e-05  -2.8949185e-05  -1.4301323e-05  -2.0911324e-07  -1.8153191e-05  -4.0323671e-05  -1.3832058e-05  -6.4135619e-05   0.0000000e+00  -3.5484924e-05   7.0879435e-06  -2.2999021e-06  -2.9298148e-05  -4.1412949e-05  -6.3317344e-05  -2.9387480e-05  -3.5627401e-05  -5.3482354e-06  -1.5326204e-05  -6.2255647e-05  -6.4308291e-05  -6.9063917e-05   4.5531908e-06  -9.4064790e-05  -4.5640539e-05  -2.5906364e-05   0.0000000e+00   3.1431396e-05   1.2782444e-05  -1.3519741e-05   6.1194422e-07   1.3768088e-05  -4.8929661e-06   3.1459856e-05  -4.1057904e-05  -3.4142836e-05   1.4930422e-07   2.2500837e-05  -2.3342391e-05  -6.9753041e-06   1.5963609e-05  -9.2179632e-06  -3.6485836e-05  -1.5547186e-05  -9.1484269e-06  -2.5303233e-05   0.0000000e+00  -1.0482489e-05  -3.5049012e-05  -3.8977422e-06  -1.5178767e-05  -4.1281853e-05  -5.1035951e-05  -1.6977766e-05  -3.2826307e-05   7.1073650e-06  -7.5357413e-06  -4.1395381e-05  -5.0528960e-05  -9.0688197e-05   4.2598969e-04   3.0770902e-04   1.2656798e-04   1.5813955e-04   0.0000000e+00   1.3624519e-04   1.6436734e-04   1.5903751e-04   1.1233162e-04   1.4992377e-04   2.3032930e-04   1.8265132e-04   1.8850769e-04   1.7735885e-04   8.9502560e-05   1.5081459e-04   2.4662067e-04   2.7163991e-04   2.1063939e-04   1.8420758e-04   2.2787813e-04   2.3364827e-04   1.7187277e-04   2.2330931e-04   0.0000000e+00   1.4908534e-04   2.8855052e-05   4.9714742e-05   4.4481917e-05   4.8169645e-05   1.5827019e-04   1.9273380e-04   2.0456730e-04   7.6425895e-05   7.6945471e-05   2.4520508e-05   1.1649997e-05   1.8945580e-04   5.7010352e-05  -5.6692773e-05  -1.0202324e-04   4.6117382e-05   0.0000000e+00   9.8319276e-06   1.2816837e-04   1.0129896e-04  -3.0019473e-05   2.5005548e-05  -3.1289300e-05   9.5447385e-05   8.1418745e-05   4.0213308e-05   6.5342714e-05   9.3857889e-06   2.2286273e-05   8.5969107e-05   1.7130665e-04   2.5451747e-04   2.5691669e-04   1.5460908e-05   9.1108735e-05  -2.5327085e-05   0.0000000e+00   2.7377310e-05   7.1531661e-06  -5.0115268e-06   5.5818396e-05   6.6168698e-05   5.0798024e-05   1.2074965e-04   6.6731127e-06  -2.2255452e-05   1.4454774e-05   6.1090257e-05  -1.8533182e-04  -6.3110405e-05   9.1516248e-05   5.2984348e-06   5.5095147e-05   1.8218794e-04   0.0000000e+00   8.3620214e-05  -2.3990409e-06  -2.2117061e-04  -5.7927840e-05   1.6219088e-04   2.6075761e-04   2.6450044e-04   8.6600207e-05  -8.3675843e-05  -1.0601541e-04   5.3628624e-05   1.7677764e-04   2.2399419e-04   2.1119583e-04   2.2186299e-04   3.8101284e-04   2.6266225e-04   2.0779995e-04   2.4520389e-04   0.0000000e+00   2.7345889e-04   1.7116618e-04   1.1684659e-04  -2.2627060e-05  -3.8621455e-05   5.3780008e-05   2.5083560e-04   1.7362571e-04   1.2759972e-05  -3.1218081e-06  -8.2024405e-05   1.4268105e-04  -7.8920605e-05   6.0558655e-04   1.6173800e-04   4.5570285e-05   2.1676698e-04   0.0000000e+00   1.0440695e-04  -3.8616734e-05   6.6593946e-06   1.2896800e-04   1.4036789e-04   1.3265666e-04   1.3926699e-04   3.1940238e-05   5.5682779e-05  -1.3575895e-05   7.2219880e-05   6.0697506e-05   2.4697681e-05   1.3055965e-04   1.0717579e-04   2.1367527e-04  -9.0649709e-05   7.5761285e-05   7.3691384e-05   0.0000000e+00   1.1402084e-04  -1.0464071e-04  -9.9773403e-06  -8.3826351e-06   6.4489113e-05   2.1657366e-05   1.3688053e-04   2.0536348e-04   2.3159934e-05   2.5265063e-05   1.9544361e-05   6.6498048e-05  -9.6075668e-05  -1.4157042e-03   2.0846768e-05   1.7438269e-04   8.1012627e-05   0.0000000e+00  -4.0449327e-05  -2.7432473e-05   5.6643581e-05   4.5900055e-05   2.6737321e-04   1.2616707e-04  -5.9006860e-05   3.8502155e-05  -2.5012662e-04  -8.2180063e-05   1.6321127e-04   4.7031202e-04   4.1477671e-04  -1.2370717e-04   7.4796860e-05   1.0301178e-04  -4.9136497e-05  -6.9428219e-05  -4.9599002e-04   0.0000000e+00  -2.6494580e-04   3.0043614e-04  -1.0336580e-04   7.8405398e-06  -3.0964228e-04  -6.2400073e-04   3.3221248e-04   3.5755833e-04   7.9624980e-05   4.4324923e-05  -1.8134440e-05  -9.1637249e-04  -4.0642060e-04
  -1.7185190e-04  -2.3606916e-04  -6.8437211e-05  -1.3240008e-04   0.0000000e+00  -9.0352886e-05  -9.2096606e-05  -7.8835367e-05  -4.5324345e-05  -1.1613416e-04  -2.1493241e-04  -1.3432894e-04  -6.6238761e-05  -3.6352170e-05  -4.7603467e-05  -9.4146206e-05  -1.6742531e-04  -1.9275111e-04  -1.6429291e-04  -1.3806119e-04  -1.4157962e-04  -1.5314216e-04  -9.9990613e-05  -1.2626696e-04   0.0000000e+00  -1.2779962e-04  -2.4923700e-05  -3.5592524e-05  -4.5788495e-05  -4.4030971e-05  -1.4403497e-04  -1.4508945e-04  -1.6731009e-04  -8.2562019e-05  -6.3531137e-05  -2.6627348e-05  -1.1899134e-04  -7.8386814e-05   3.4542006e-04   1.7581155e-04   3.3659970e-04   2.7304716e-04   0.0000000e+00   1.0933898e-04  -1.9424657e-04   1.6687550e-04   1.0092269e-04   5.2497638e-04   3.9209810e-04   2.8748131e-04  -6.2235530e-04  -5.6258091e-04  -7.1005974e-05   1.4044843e-04   6.9921679e-04   7.0444580e-04   1.2457192e-04   2.4470754e-04   2.2798852e-04   4.3036409e-04  -3.3547870e-05  -8.4604088e-05   0.0000000e+00  -1.3186908e-04  -3.3128247e-05  -2.3993992e-04   3.8997621e-05  -3.8202848e-04  -2.9378090e-04   5.0298161e-04   8.2777561e-04  -2.6836981e-04  -5.9269804e-05   4.5047318e-04  -1.4632856e-03  -4.0642358e-04  -1.0432086e-04   4.6525687e-06   3.3134666e-05  -1.1744670e-04   0.0000000e+00   7.7937017e-05   1.6584414e-04   1.3943891e-04   6.3859162e-05  -5.1503475e-05   1.0789341e-04   1.2897136e-04   5.7598149e-05   2.4902875e-04  -3.5059508e-05   1.2082581e-04   2.9522837e-05   1.1299310e-04  -5.7742555e-05   1.4795565e-04   2.3136260e-04   2.5059237e-05   6.0835407e-05  -1.3104406e-04   0.0000000e+00   1.1747594e-04   2.7938014e-05  -2.9551264e-05  -1.4161325e-05  -8.8854775e-05  -2.0271801e-04   2.1665573e-04   1.8666706e-04   1.2198321e-04   4.6132028e-05  -8.8306616e-05  -5.9351674e-05   4.9962431e-05  -1.1023631e-04   1.6100394e-05   8.6757660e-06  -7.3111574e-05   0.0000000e+00  -3.5572521e-05  -5.6732178e-05  -7.0226695e-05  -4.4298169e-05  -9.8987042e-05  -1.2526256e-05   8.8323635e-07   5.4102651e-07  -5.0127430e-05  -2.5256782e-05  -4.1495106e-05  -1.0810915e-05   5.7131247e-05   1.6900387e-05   2.9746804e-05   8.6552750e-07  -1.8429524e-05  -1.3567417e-05  -2.2571518e-05   0.0000000e+00  -8.4152028e-06  -1.5796138e-05  -3.2370578e-05  -1.5719886e-05  -2.8057033e-05  -7.9855675e-05   2.7187022e-05   1.5001126e-05  -1.3208519e-05  -2.1300563e-05  -5.0457570e-06   1.0487505e-05  -7.3488086e-05   2.0584770e-04   8.8338112e-05   1.5967417e-05   8.5951421e-05   0.0000000e+00   5.4163002e-05  -8.5528118e-05  -5.9556829e-05  -1.3246561e-05   7.5024630e-05   4.1885263e-05   5.5567714e-05  -8.6894303e-05  -7.0243781e-05  -1.7367973e-05   1.9906816e-05   2.4900940e-05   5.6091246e-05   6.9673058e-05   6.7617314e-05   1.1294661e-04   4.7539560e-05   6.9327934e-05   9.4652944e-05   0.0000000e+00   8.6461794e-05   4.6624150e-05   4.8461375e-05  -3.5247091e-05  -1.7081036e-05   4.3319224e-06   1.0921514e-04   1.1572866e-04   1.2351537e-05  -3.9154585e-05  -4.4650943e-05   5.4706476e-05   6.4193539e-05  -3.7708459e-05  -1.1448436e-04  -6.1696836e-05  -5.0737636e-05   0.0000000e+00  -1.3558615e-05   1.8219755e-05  -1.1546185e-05  -1.1372377e-05   2.1437320e-05  -2.4310536e-05  -5.3052699e-05   2.6324823e-05  -3.5127546e-06  -3.3544660e-06   2.7903342e-06  -1.9754137e-05  -2.4870949e-05  -8.3412265e-06   4.9171235e-06  -1.3845027e-05  -3.6171696e-05  -1.0476219e-05  -6.1558676e-05   0.0000000e+00  -3.2115161e-05   6.8030344e-06  -6.0432599e-07  -2.8448141e-05  -4.1295055e-05  -5.6557003e-05  -2.4971949e-05  -3.1656625e-05  -8.1321999e-07  -1.1747878e-05  -6.2856474e-05  -5.6388653e-05  -6.5865067e-05   1.2731974e-05  -8.5514795e-05  -4.4834711e-05  -2.0861288e-05   0.0000000e+00   3.4875606e-05   1.5503929e-05  -1.3354905e-05   1.6741306e-06   2.0175288e-05   7.8683716e-06   3.9883566e-05  -3.8827823e-05  -3.7206232e-05   3.0874712e-06   2.8066282e-05  -1.2426016e-05   6.8102047e-06   2.6771015e-05  -1.7724460e-06  -3.1384225e-05  -1.1369766e-05  -6.0753792e-06  -2.3072593e-05   0.0000000e+00  -4.1052446e-06  -3.5380009e-05  -2.3593520e-06  -1.0907831e-05  -4.1453493e-05  -3.7923219e-05  -1.1531738e-05  -2.3516065e-05   9.1130161e-06  -5.1844418e-06  -3.3927284e-05  -5.2172285e-05  -9.0238352e-05   4.2846548e-04   3.2875380e-04   1.3021968e-04   1.5690093e-04   0.0000000e+00   1.4056567e-04   1.7120761e-04   1.6504853e-04   1.1301503e-04   1.5596293e-04   2.4154304e-04   1.8715457e-04   1.9698665e-04   1.7811685e-04   9.3689556e-05   1.5651985e-04   2.5386349e-04   2.8039557e-04   2.1779241e-04   1.9139194e-04   2.3355881e-04   2.5009470e-04   1.8073891e-04   2.4384668e-04   0.0000000e+00   1.6518487e-04   3.7508064e-05   5.7263297e-05   5.1308512e-05   5.6478960e-05   1.8081607e-04   1.9921627e-04   2.1417905e-04   8.5672038e-05   8.6254179e-05   2.5214774e-05   2.6859597e-05   2.0586200e-04   6.0110354e-05  -5.8263899e-05  -9.8672164e-05   5.5068258e-05   0.0000000e+00   1.4730022e-05   1.5032551e-04   1.1629101e-04  -2.6263617e-05   3.2160303e-05  -1.1742120e-05   1.0646118e-04   9.1528878e-05   4.0176332e-05   7.2439261e-05   1.4322322e-05   3.1044474e-05   9.8171056e-05   1.8591150e-04   2.6328835e-04   2.7181486e-04   2.4948262e-05   9.5578895e-05  -1.9336065e-05   0.0000000e+00   3.0746762e-05  -1.4502754e-06  -9.5123833e-06   6.2816081e-05   7.1154238e-05   6.3230118e-05   1.2922145e-04   1.2029385e-05  -1.4568283e-05   2.2588378e-05   6.0319777e-05  -1.6738246e-04  -5.7651196e-05   1.0242308e-04   3.7374654e-07   5.5700041e-05   1.7302401e-04   0.0000000e+00   8.9601371e-05  -1.7943069e-06  -2.3340685e-04  -5.9214782e-05   1.6415778e-04   2.7073797e-04   2.7901463e-04   8.4058096e-05  -8.1790275e-05  -1.1870080e-04   5.4692020e-05   1.7967042e-04   2.2869594e-04   2.2050320e-04   2.2863828e-04   3.9533653e-04   2.6896335e-04   2.1464453e-04   2.5174821e-04   0.0000000e+00   2.8361013e-04   1.6876240e-04   1.1610867e-04  -2.3943077e-05  -3.7634340e-05   6.0963182e-05   2.6343459e-04   1.8175409e-04   2.1597605e-05   8.4583705e-07  -8.8401563e-05   1.6498832e-04  -6.9465236e-05   6.3520521e-04   1.7779342e-04   5.2634666e-05   2.3196069e-04   0.0000000e+00   1.1302690e-04  -2.7310036e-05   1.3559420e-05   1.3493945e-04   1.4745737e-04   1.5244457e-04   1.5313140e-04   3.5995369e-05   5.8792226e-05  -9.3753947e-06   8.0606318e-05   7.5849510e-05   4.3584057e-05   1.4352725e-04   1.1853087e-04   2.2610350e-04  -7.8404659e-05   8.0541873e-05   8.1817751e-05   0.0000000e+00   1.2392216e-04  -9.7615083e-05  -3.6739191e-06  -5.7355197e-06   7.0280340e-05   3.0881970e-05   1.4816952e-04   2.1716996e-04   3.0650114e-05   2.8299458e-05   2.2125969e-05   7.4134174e-05  -9.1787554e-05  -1.4115652e-03   9.7216245e-06   1.7085911e-04   7.4429573e-05   0.0000000e+00  -4.8321332e-05  -2.2046569e-05   6.2730902e-05   4.9492599e-05   2.6746089e-04   1.1558927e-04  -7.5141856e-05   4.6199034e-05  -2.4471982e-04  -7.4595102e-05   1.6660336e-04   4.6993507e-04   3.8880283e-04  -1.4270338e-04   6.8818842e-05   1.0706943e-04  -4.5582901e-05  -7.0355489e-05  -4.7768552e-04   0.0000000e+00  -2.7480539e-04   2.7770303e-04  -1.0816624e-04   5.2785078e-06  -3.1572549e-04  -6.3597746e-04   3.1592679e-04   3.3508255e-04   6.8279219e-05   4.1916682e-05  -2.2491702e-05  -9.1979922e-04  -4.2650651e-04
  -1.6514438e-04  -2.3747970e-04  -6.8055601e-05  -1.2904605e-04   0.0000000e+00  -8.7251733e-05  -8.3260220e-05  -7.3194720e-05  -4.2491388e-05  -1.1448739e-04  -2.1281465e-04  -1.2943721e-04  -6.0704671e-05  -3.0757370e-05  -4.3753652e-05  -8.9606413e-05  -1.6339995e-04  -1.8564036e-04  -1.5699044e-04  -1.3130549e-04  -1.3724612e-04  -1.4928717e-04  -9.6322050e-05  -1.2585422e-04   0.0000000e+00  -1.2698963e-04  -2.6004073e-05  -3.5170596e-05  -4.6458292e-05  -4.5403722e-05  -1.4565351e-04  -1.4044849e-04  -1.6336986e-04  -8.0255935e-05  -6.3109718e-05  -2.7386254e-05  -1.2019230e-04  -7.9117893e-05   4.4793822e-04   2.3529188e-04   3.9199220e-04   3.3608289e-04   0.0000000e+00   1.4088953e-04  -1.9590372e-04   1.9749581e-04   1.4513953e-04   5.6868450e-04   4.2806498e-04   3.3096797e-04  -5.8017542e-04  -5.3605022e-04  -6.7557813e-05   1.7545591e-04   7.3186983e-04   7.3618933e-04   1.6094122e-04   2.7506662e-04   2.8779371e-04   5.2058929e-04   1.4270160e-05  -1.6978372e-05   0.0000000e+00  -8.7799216e-05  -3.8341035e-05  -2.4447070e-04   4.7267083e-05  -3.6723689e-04  -2.6632369e-04   5.3059577e-04   8.6894985e-04  -2.6856513e-04  -3.2783055e-05   4.6788595e-04  -1.4759185e-03  -3.9337364e-04  -3.9139801e-05   5.1954784e-05   6.0564270e-05  -8.5051433e-05   0.0000000e+00   1.0370252e-04   1.7592696e-04   1.3883011e-04   9.3271129e-05  -2.5300670e-05   1.4705358e-04   1.7367671e-04   6.8192060e-05   2.6477450e-04  -2.9366038e-05   1.4370443e-04   5.9678865e-05   1.6654287e-04  -1.0027611e-05   1.9767491e-04   2.9768831e-04   5.7102445e-05   8.6412057e-05  -1.0716455e-04   0.0000000e+00   1.6257247e-04   5.6250264e-05  -3.9307257e-06   2.7242095e-07  -7.8773325e-05  -1.9788505e-04   2.8178527e-04   2.4839588e-04   1.4232059e-04   6.5250116e-05  -7.0331231e-05  -4.7976966e-05   5.1063782e-05  -1.0553635e-04   3.0170517e-05   1.5868039e-05  -6.5509392e-05   0.0000000e+00  -2.9487982e-05  -5.3302567e-05  -6.6101049e-05  -3.9424533e-05  -9.5484675e-05  -2.1029278e-06   8.1015262e-06   5.4755926e-06  -5.2665166e-05  -2.1512386e-05  -3.3829498e-05  -6.4361407e-06   6.2200819e-05   2.3209682e-05   3.5153577e-05   5.5111613e-06   2.4104713e-07  -5.7390661e-06  -1.2733077e-05   0.0000000e+00  -2.4688304e-06  -1.3923525e-05  -2.9885500e-05  -1.3356253e-05  -2.6277506e-05  -7.4208505e-05   3.1124129e-05   1.9728054e-05  -7.9102390e-06  -1.8215859e-05  -3.7755951e-06   1.3542297e-05  -6.8162178e-05   2.3161523e-04   1.0063342e-04   2.5812278e-05   1.0605555e-04   0.0000000e+00   6.3181638e-05  -7.7783977e-05  -5.4889110e-05  -5.3328735e-06   8.7215992e-05   6.0113727e-05   6.9176016e-05  -7.6693671e-05  -6.0625997e-05  -1.6341305e-05   2.7890373e-05   3.7975280e-05   6.8987671e-05   8.2709679e-05   7.8418448e-05   1.2649949e-04   5.6692087e-05   7.8683404e-05   1.0324213e-04   0.0000000e+00   9.5421898e-05   4.7491878e-05   5.1474765e-05  -3.3986024e-05  -1.3252375e-05   1.4540036e-05   1.1456571e-04   1.2345061e-04   1.2439881e-05  -3.8326237e-05  -4.1769523e-05   7.1489146e-05   7.3583853e-05  -2.5385027e-05  -1.0803367e-04  -6.1834005e-05  -4.4119507e-05   0.0000000e+00  -8.5619099e-06   2.3303961e-05  -9.8502229e-06  -8.1562029e-06   2.6982417e-05  -1.6881234e-05  -4.7393650e-05   3.0615899e-05  -3.2115419e-06  -1.6924271e-06   6.4359725e-06  -1.5600189e-05  -2.0739060e-05  -2.3399317e-06   1.0142385e-05  -9.0650979e-06  -3.2529901e-05  -7.1821867e-06  -5.9103628e-05   0.0000000e+00  -2.8482575e-05   6.1587070e-06   9.4705519e-07  -2.7652640e-05  -4.1033776e-05  -4.9587249e-05  -2.0610499e-05  -2.8033840e-05   3.2874721e-06  -8.3683656e-06  -6.2963489e-05  -4.8579649e-05  -6.2227845e-05   1.9473209e-05  -7.6433159e-05  -4.3494490e-05  -1.4968989e-05   0.0000000e+00   3.7589534e-05   1.5604740e-05  -1.3595033e-05   3.1385949e-06   2.7290197e-05   2.1391287e-05   4.8113519e-05  -3.6420832e-05  -4.1116002e-05   6.1458229e-06   3.3751124e-05   2.8843409e-07   2.2697790e-05   3.7601402e-05   7.2733629e-06  -2.5129666e-05  -6.2563413e-06  -2.6226358e-06  -2.0815221e-05   0.0000000e+00   2.5090075e-06  -3.3381977e-05   5.4558572e-07  -6.0088988e-06  -4.1419918e-05  -2.4764386e-05  -6.5011597e-06  -1.4476275e-05   9.0005373e-06  -3.8482357e-06  -2.4040094e-05  -5.4283488e-05  -9.0209555e-05   4.2704801e-04   3.4753072e-04   1.3183301e-04   1.5393235e-04   0.0000000e+00   1.4280123e-04   1.7596171e-04   1.6944366e-04   1.1257123e-04   1.6009970e-04   2.4933299e-04   1.8863536e-04   2.0401580e-04   1.7788861e-04   9.6894849e-05   1.6059698e-04   2.5855749e-04   2.8520253e-04   2.2130919e-04   1.9614906e-04   2.3671719e-04   2.6329604e-04   1.8762222e-04   2.6170324e-04   0.0000000e+00   1.7933597e-04   4.6562828e-05   6.5117904e-05   5.7814230e-05   6.4701410e-05   2.0372533e-04   2.0228442e-04   2.1995996e-04   9.3037883e-05   9.4472095e-05   2.6920225e-05   4.1567605e-05   2.2228330e-04   5.9172199e-05  -6.0381872e-05  -9.5690513e-05   6.1685538e-05   0.0000000e+00   1.9094273e-05   1.7100819e-04   1.2983028e-04  -2.3420427e-05   3.9075329e-05   8.3347938e-06   1.1621658e-04   1.0087125e-04   3.9154118e-05   7.9251988e-05   1.7272985e-05   3.8929240e-05   1.0846396e-04   1.9893695e-04   2.7073697e-04   2.8556666e-04   3.2699456e-05   9.8897473e-05  -1.4111313e-05   0.0000000e+00   3.3809082e-05  -1.0046936e-05  -1.4484482e-05   6.9959336e-05   7.6244331e-05   7.5523872e-05   1.3677758e-04   1.6366842e-05  -6.8696869e-06   3.1213796e-05   5.9598882e-05  -1.4725311e-04  -5.1245301e-05   1.1474308e-04  -5.5166941e-06   5.5360850e-05   1.6173734e-04   0.0000000e+00   9.5030982e-05   2.6067088e-07  -2.4621585e-04  -6.1504613e-05   1.6852807e-04   2.8150298e-04   2.9268235e-04   8.3070814e-05  -7.8246316e-05  -1.3072243e-04   5.6081655e-05   1.8430020e-04   2.3457810e-04   2.3006055e-04   2.3643944e-04   4.0968140e-04   2.7524810e-04   2.2180493e-04   2.5825204e-04   0.0000000e+00   2.9440274e-04   1.6778161e-04   1.1650005e-04  -2.4954744e-05  -3.6364715e-05   6.9431815e-05   2.7528474e-04   1.8862771e-04   3.0421915e-05   4.2392855e-06  -9.5384736e-05   1.8829118e-04  -5.9298046e-05   6.6072345e-04   1.9206766e-04   6.0676242e-05   2.4271440e-04   0.0000000e+00   1.2066952e-04  -1.4506722e-05   1.9818559e-05   1.3903217e-04   1.5347069e-04   1.7206195e-04   1.6588672e-04   4.0155491e-05   6.1509450e-05  -4.4785422e-06   8.8971880e-05   9.1991989e-05   6.3771782e-05   1.5670307e-04   1.3030793e-04   2.3874891e-04  -6.2370503e-05   8.6227666e-05   9.0596892e-05   0.0000000e+00   1.3430648e-04  -8.8530410e-05   3.9457381e-06  -2.9043191e-06   7.5354058e-05   4.0444463e-05   1.5774511e-04   2.2608194e-04   3.7169652e-05   3.0679374e-05   2.3918729e-05   8.1450018e-05  -8.6128547e-05  -1.4010099e-03   1.8190732e-07   1.6586471e-04   6.6760958e-05   0.0000000e+00  -5.6449085e-05  -1.6803928e-05   6.8048100e-05   5.1983798e-05   2.6526745e-04   1.0329710e-04  -9.1914897e-05   5.3414792e-05  -2.3822702e-04  -6.7212217e-05   1.6861397e-04   4.6661549e-04   3.6096108e-04  -1.6224472e-04   5.9837355e-05   1.0674535e-04  -4.0146571e-05  -7.0683598e-05  -4.5591808e-04   0.0000000e+00  -2.8199028e-04   2.5659318e-04  -1.1055393e-04   3.4090050e-06  -3.1960234e-04  -6.4151048e-04   2.9588571e-04   3.0961943e-04   5.6816667e-05   3.9103726e-05  -2.6798017e-05  -9.1684406e-04  -4.4087434e-04
  -1.5621634e-04  -2.3646863e-04  -6.7285830e-05  -1.2471356e-04   0.0000000e+00  -8.3350695e-05  -7.3599527e-05  -6.6879921e-05  -3.9378539e-05  -1.1173782e-04  -2.0883198e-04  -1.2335562e-04  -5.4603336e-05  -2.5078705e-05  -3.9491258e-05  -8.4384899e-05  -1.5769562e-04  -1.7697299e-04  -1.4815291e-04  -1.2337156e-04  -1.3148412e-04  -1.4453901e-04  -9.2064153e-05  -1.2454903e-04   0.0000000e+00  -1.2518314e-04  -2.7256241e-05  -3.4683206e-05  -4.6700616e-05  -4.6289770e-05  -1.4576116e-04  -1.3463473e-04  -1.5816127e-04  -7.7368589e-05  -6.2133710e-05  -2.7780666e-05  -1.2024636e-04  -7.9080687e-05   5.3956719e-04   2.9294567e-04   4.4174608e-04   3.9493593e-04   0.0000000e+00   1.7086476e-04  -1.8948879e-04   2.3101036e-04   1.8860982e-04   6.0488999e-04   4.5924714e-04   3.7017128e-04  -5.3033917e-04  -4.9751812e-04  -5.9931670e-05   2.1216179e-04   7.5652093e-04   7.5979403e-04   1.9527484e-04   3.0198074e-04   3.4238978e-04   6.0601836e-04   6.2686941e-05   5.3199912e-05   0.0000000e+00  -4.2148936e-05  -4.1151013e-05  -2.4337122e-04   5.7907033e-05  -3.4521122e-04  -2.3192932e-04   5.5303411e-04   8.9845806e-04  -2.6067907e-04  -2.4491627e-06   4.8207439e-04  -1.4679600e-03  -3.7268412e-04   2.0583121e-05   1.0262452e-04   8.9586988e-05  -5.2859541e-05   0.0000000e+00   1.2844268e-04   1.9165117e-04   1.3729548e-04   1.2222984e-04   9.0122436e-08   1.8630513e-04   2.1739907e-04   7.9184547e-05   2.8298687e-04  -2.5201516e-05   1.6623395e-04   9.0800464e-05   2.1985157e-04   4.0201308e-05   2.4532279e-04   3.6320723e-04   8.8681222e-05   1.1185988e-04  -8.4351101e-05   0.0000000e+00   2.0734383e-04   8.4382550e-05   2.1600326e-05   1.3595642e-05  -7.0120349e-05  -1.9516166e-04   3.4765852e-04   3.0768800e-04   1.6112658e-04   8.4028650e-05  -5.4545125e-05  -4.0224462e-05   5.2905549e-05  -1.0037441e-04   4.3110041e-05   2.2370700e-05  -5.8227159e-05   0.0000000e+00  -2.3765808e-05  -4.9978864e-05  -6.2071203e-05  -3.4839285e-05  -9.1711323e-05   7.6539299e-06   1.4406139e-05   9.3379079e-06  -5.5326485e-05  -1.8357708e-05  -2.7013514e-05  -2.7541776e-06   6.5699574e-05   2.8506102e-05   3.9636266e-05   9.6538949e-06   1.6793304e-05   1.3002419e-06  -3.9853714e-06   0.0000000e+00   3.0067546e-06  -1.2287633e-05  -2.7507569e-05  -1.1316494e-05  -2.4599419e-05  -6.8388741e-05   3.4044107e-05   2.3236957e-05  -2.5902304e-06  -1.5216261e-05  -2.8889426e-06   1.6680746e-05  -6.2438606e-05   2.5502478e-04   1.1258361e-04   3.5271312e-05   1.2606388e-04   0.0000000e+00   7.1718573e-05  -6.9679564e-05  -5.0562177e-05   2.3522798e-06   9.8664770e-05   7.8214403e-05   8.2151311e-05  -6.5546235e-05  -5.0617639e-05  -1.5272847e-05   3.5454361e-05   5.0027785e-05   8.0606404e-05   9.5070580e-05   8.8727497e-05   1.3874250e-04   6.4830497e-05   8.7712599e-05   1.1164365e-04   0.0000000e+00   1.0422340e-04   4.7404951e-05   5.3943482e-05  -3.2786357e-05  -9.0639173e-06   2.5164503e-05   1.1876519e-04   1.2987754e-04   1.2119691e-05  -3.7631039e-05  -3.8603468e-05   8.8808516e-05   8.3278200e-05  -1.2098285e-05  -1.0131908e-04  -6.1601536e-05  -3.6955048e-05   0.0000000e+00  -3.3651525e-06   2.8332986e-05  -8.3615818e-06  -4.8825776e-06   3.2933626e-05  -9.1350312e-06  -4.0993082e-05   3.4325273e-05  -2.8950199e-06  -2.4179785e-07   9.9562567e-06  -1.1216663e-05  -1.6618266e-05   3.5130346e-06   1.5339307e-05  -3.9638854e-06  -2.9716294e-05  -4.1330756e-06  -5.7003530e-05   0.0000000e+00  -2.4719537e-05   5.2207542e-06   2.3015037e-06  -2.6965645e-05  -4.0641299e-05  -4.2716118e-05  -1.6401492e-05  -2.4859694e-05   6.8552919e-06  -5.3627739e-06  -6.2717991e-05  -4.0885109e-05  -5.8323954e-05   2.4575187e-05  -6.7025225e-05  -4.1542651e-05  -8.3107428e-06   0.0000000e+00   3.9610179e-05   1.2807413e-05  -1.4249414e-05   5.0055732e-06   3.5002812e-05   3.5342556e-05   5.6001759e-05  -3.4151563e-05  -4.5983114e-05   9.1714302e-06   3.9435729e-05   1.4436738e-05   4.0354790e-05   4.8237508e-05   1.7745478e-05  -1.7777073e-05  -2.1217497e-07   1.1858616e-06  -1.8506845e-05   0.0000000e+00   9.3001475e-06  -2.9074951e-05   4.7899612e-06  -5.9929744e-07  -4.1216323e-05  -1.1997408e-05  -1.9441285e-06  -5.8634112e-06   6.7973420e-06  -3.6125092e-06  -1.2097620e-05  -5.6566292e-05  -9.0772579e-05   4.2235759e-04   3.6389386e-04   1.3145270e-04   1.4947311e-04   0.0000000e+00   1.4305034e-04   1.7877674e-04   1.7232248e-04   1.1118178e-04   1.6239105e-04   2.5373551e-04   1.8724907e-04   2.0956013e-04   1.7691944e-04   9.9104330e-05   1.6312081e-04   2.6077975e-04   2.8602855e-04   2.2114442e-04   1.9834794e-04   2.3739621e-04   2.7304715e-04   1.9240175e-04   2.7660335e-04   0.0000000e+00   1.9124555e-04   5.5653932e-05   7.3003556e-05   6.3853955e-05   7.2668458e-05   2.2664835e-04   2.0190565e-04   2.2181808e-04   9.8411577e-05   1.0142668e-04   2.9474487e-05   5.5503736e-05   2.3870765e-04   5.4015339e-05  -6.3107635e-05  -9.3343377e-05   6.5621481e-05   0.0000000e+00   2.2543578e-05   1.8955929e-04   1.4151129e-04  -2.1727035e-05   4.5654657e-05   2.8078891e-05   1.2440391e-04   1.0937580e-04   3.7225524e-05   8.5649315e-05   1.8068306e-05   4.5954293e-05   1.1672710e-04   2.1019409e-04   2.7708806e-04   2.9823362e-04   3.8403516e-05   1.0103307e-04  -1.0108223e-05   0.0000000e+00   3.6269345e-05  -1.8517358e-05  -1.9910825e-05   7.7074284e-05   8.1357830e-05   8.7143178e-05   1.4321017e-04   1.9330929e-05   4.5365171e-07   4.0037547e-05   5.9055310e-05  -1.2584180e-04  -4.4235842e-05   1.2761373e-04  -1.2422073e-05   5.3674793e-05   1.4843523e-04   0.0000000e+00   9.9581278e-05   2.9556419e-06  -2.5961482e-04  -6.5218087e-05   1.7499762e-04   2.9245532e-04   3.0499165e-04   8.3278237e-05  -7.3968148e-05  -1.4177810e-04   5.7543468e-05   1.9048904e-04   2.4154125e-04   2.3956358e-04   2.4515476e-04   4.2388133e-04   2.8123540e-04   2.2913562e-04   2.6448699e-04   0.0000000e+00   3.0574971e-04   1.6850433e-04   1.1816092e-04  -2.5794095e-05  -3.4906875e-05   7.8972225e-05   2.8607283e-04   1.9389916e-04   3.8766747e-05   6.7447687e-06  -1.0277669e-04   2.1211837e-04  -4.8891971e-05   6.8193334e-04   2.0396267e-04   6.9305536e-05   2.4904655e-04   0.0000000e+00   1.2712928e-04  -9.0687852e-07   2.5193299e-05   1.4137617e-04   1.5830918e-04   1.9087301e-04   1.7711867e-04   4.4646687e-05   6.3951789e-05   8.9917628e-07   9.7217115e-05   1.0856973e-04   8.4437295e-05   1.6965936e-04   1.4209490e-04   2.5139125e-04  -4.3084937e-05   9.2881100e-05   9.9982696e-05   0.0000000e+00   1.4501621e-04  -7.7801124e-05   1.2640763e-05  -9.4939824e-08   7.9655818e-05   5.0145739e-05   1.6514396e-04   2.3174882e-04   4.2270202e-05   3.2311723e-05   2.4762070e-05   8.8451689e-05  -7.9362593e-05  -1.3861089e-03  -7.0191661e-06   1.5987169e-04   5.8463558e-05   0.0000000e+00  -6.4455966e-05  -1.1961175e-05   7.2583387e-05   5.3496860e-05   2.6143284e-04   9.0185271e-05  -1.0863183e-04   6.0132794e-05  -2.3120242e-04  -6.0401412e-05   1.6959652e-04   4.6129754e-04   3.3309673e-04  -1.8166950e-04   4.8278992e-05   1.0210747e-04  -3.2802865e-05  -7.0338812e-05  -4.3182765e-04   0.0000000e+00  -2.8615812e-04   2.3853881e-04  -1.1029308e-04   2.3420877e-06  -3.2148224e-04  -6.4110348e-04   2.7344951e-04   2.8273638e-04   4.5801590e-05   3.6097102e-05  -3.0881161e-05  -9.0897742e-04  -4.4946026e-04
  -1.4528186e-04  -2.3311199e-04  -6.6160390e-05  -1.1953933e-04   0.0000000e+00  -7.8774370e-05  -6.3462146e-05  -6.0132564e-05  -3.6083185e-05  -1.0795208e-04  -2.0314631e-04  -1.1630380e-04  -4.8169691e-05  -1.9547009e-05  -3.4967884e-05  -7.8674245e-05  -1.5054271e-04  -1.6706707e-04  -1.3808559e-04  -1.1452902e-04  -1.2453406e-04  -1.3911068e-04  -8.7401926e-05  -1.2242914e-04   0.0000000e+00  -1.2251644e-04  -2.8663091e-05  -3.4161518e-05  -4.6513556e-05  -4.6677099e-05  -1.4435480e-04  -1.2782853e-04  -1.5183105e-04  -7.4006117e-05  -6.0639575e-05  -2.7772330e-05  -1.1914341e-04  -7.8357679e-05   6.1751772e-04   3.4647448e-04   4.8413775e-04   4.4748823e-04   0.0000000e+00   1.9797877e-04  -1.7440680e-04   2.6742091e-04   2.2995660e-04   6.3264914e-04   4.8461286e-04   4.0335464e-04  -4.7512434e-04  -4.4821654e-04  -4.7513487e-05   2.4962976e-04   7.7296340e-04   7.7459639e-04   2.2588711e-04   3.2421716e-04   3.8941292e-04   6.8359516e-04   1.0974243e-04   1.2343414e-04   0.0000000e+00   3.0301566e-06  -4.1654362e-05  -2.3676868e-04   7.1175079e-05  -3.1669434e-04  -1.9177570e-04   5.6938433e-04   9.1524349e-04  -2.4491966e-04   3.1279247e-05   4.9377288e-04  -1.4411191e-03  -3.4541485e-04   7.0568950e-05   1.5417837e-04   1.1913042e-04  -2.2849912e-05   0.0000000e+00   1.5114015e-04   2.1272278e-04   1.3625988e-04   1.4941530e-04   2.3619565e-05   2.2490629e-04   2.5874829e-04   8.9746066e-05   3.0200278e-04  -2.2417808e-05   1.8822879e-04   1.2248991e-04   2.7243366e-04   9.1397754e-05   2.8926218e-04   4.2554504e-04   1.1891110e-04   1.3628530e-04  -6.3796026e-05   0.0000000e+00   2.5012413e-04   1.1148869e-04   4.5754832e-05   2.5077867e-05  -6.3673530e-05  -1.9549412e-04   4.1272908e-04   3.6290535e-04   1.7803873e-04   1.0174484e-04  -4.2117891e-05  -3.7064718e-05   5.5948576e-05  -9.5374014e-05   5.4386639e-05   2.7877487e-05  -5.1791254e-05   0.0000000e+00  -1.8760819e-05  -4.7047565e-05  -5.8476466e-05  -3.0839251e-05  -8.7930817e-05   1.6299165e-05   1.9361461e-05   1.1872468e-05  -5.8102590e-05  -1.6046129e-05  -2.1375581e-05   2.3410954e-08   6.7446515e-05   3.2461547e-05   4.2934183e-05   1.2999633e-05   3.0338744e-05   7.1418045e-06   3.2121858e-06   0.0000000e+00   7.6794222e-06  -1.0964398e-05  -2.5379037e-05  -9.7049443e-06  -2.3138521e-05  -6.2718171e-05   3.5785897e-05   2.5347147e-05   2.5704150e-06  -1.2442881e-05  -2.4602394e-06   1.9855254e-05  -5.6615092e-05   2.7561494e-04   1.2399266e-04   4.4105147e-05   1.4547444e-04   0.0000000e+00   7.9602195e-05  -6.1358448e-05  -4.6646198e-05   9.5448414e-06   1.0909496e-04   9.5819424e-05   9.4247912e-05  -5.3875474e-05  -4.0669263e-05  -1.4185774e-05   4.2395984e-05   6.0716966e-05   9.0710775e-05   1.0648999e-04   9.8248720e-05   1.4928531e-04   7.1811826e-05   9.6211861e-05   1.1974221e-04   0.0000000e+00   1.1272978e-04   4.6468485e-05   5.5876813e-05  -3.1703234e-05  -4.6190171e-06   3.6011513e-05   1.2178528e-04   1.3485412e-04   1.1547160e-05  -3.7075550e-05  -3.5320496e-05   1.0633639e-04   9.3283335e-05   1.3484825e-06  -9.4699776e-05  -6.1133617e-05  -2.9652751e-05   0.0000000e+00   1.8024086e-06   3.3073391e-05  -7.2715878e-06  -1.8025244e-06   3.9101122e-05  -1.3527887e-06  -3.4122080e-05   3.7265676e-05  -2.5509317e-06   8.7141912e-07   1.3146387e-05  -6.7343318e-06  -1.2562122e-05   9.0358281e-06   2.0382959e-05   1.2776974e-06  -2.8037917e-05  -1.5169853e-06  -5.5491217e-05   0.0000000e+00  -2.0973148e-05   4.0726330e-06   3.4172027e-06  -2.6428332e-05  -4.0136765e-05  -3.6251074e-05  -1.2420470e-05  -2.2198159e-05   9.8418945e-06  -2.8805112e-06  -6.2281047e-05  -3.3283728e-05  -5.4339203e-05   2.7907110e-05  -5.7526666e-05  -3.8940761e-05  -1.0809995e-06   0.0000000e+00   4.0990543e-05   6.9882290e-06  -1.5321175e-05   7.2298122e-06   4.3134040e-05   4.9310658e-05   6.3364421e-05  -3.2395507e-05  -5.1881286e-05   1.1986979e-05   4.4968880e-05   2.9519526e-05   5.9289644e-05   5.8435590e-05   2.9342385e-05  -9.4579080e-06   6.6664586e-06   5.2756424e-06  -1.6135094e-05   0.0000000e+00   1.6181132e-05  -2.2637357e-05   1.0235164e-05   5.1692793e-06  -4.0890229e-05  -5.1901831e-08   2.1043497e-06   2.2057335e-06   2.6658657e-06  -4.4923531e-06   1.3876444e-06  -5.8706441e-05  -9.2070144e-05   4.1506212e-04   3.7778449e-04   1.2920706e-04   1.4377482e-04   0.0000000e+00   1.4149816e-04   1.7986891e-04   1.7382675e-04   1.0904287e-04   1.6294781e-04   2.5491374e-04   1.8325949e-04   2.1361511e-04   1.7543126e-04   1.0033814e-04   1.6421131e-04   2.6066515e-04   2.8298692e-04   2.1740448e-04   1.9794893e-04   2.3570395e-04   2.7929928e-04   1.9502573e-04   2.8842392e-04   0.0000000e+00   2.0073204e-04   6.4406567e-05   8.0626773e-05   6.9311339e-05   8.0227820e-05   2.4923426e-04   1.9820025e-04   2.1983759e-04   1.0180343e-04   1.0702116e-04   3.2638305e-05   6.8484694e-05   2.5511648e-04   4.4711623e-05  -6.6401010e-05  -9.1827096e-05   6.6681276e-05   0.0000000e+00   2.4758373e-05   2.0547788e-04   1.5103962e-04  -2.1346939e-05   5.1850586e-05   4.6680968e-05   1.3082292e-04   1.1698579e-04   3.4504519e-05   9.1485492e-05   1.6651444e-05   5.2179923e-05   1.2290569e-04   2.1953041e-04   2.8254363e-04   3.0987161e-04   4.1807471e-05   1.0195984e-04  -7.7769661e-06   0.0000000e+00   3.7810364e-05  -2.6803961e-05  -2.5800357e-05   8.3949962e-05   8.6393994e-05   9.7550644e-05   1.4830155e-04   2.0572760e-05   7.0354175e-06   4.8750891e-05   5.8791826e-05  -1.0406059e-04  -3.6969929e-05   1.4008129e-04  -2.0312878e-05   5.0274316e-05   1.3323104e-04   0.0000000e+00   1.0292810e-04   5.3298306e-06  -2.7362465e-04  -7.0726860e-05   1.8300455e-04   3.0282766e-04   3.1545876e-04   8.4176206e-05  -6.9956541e-05  -1.5164125e-04   5.8801554e-05   1.9786356e-04   2.4932862e-04   2.4864045e-04   2.5455222e-04   4.3768365e-04   2.8658699e-04   2.3643224e-04   2.7019847e-04   0.0000000e+00   3.1747078e-04   1.7103477e-04   1.2111159e-04  -2.6618988e-05  -3.3354098e-05   8.9280511e-05   2.9549946e-04   1.9727843e-04   4.6164312e-05   8.0725746e-06  -1.1032581e-04   2.3597012e-04  -3.8720764e-05   6.9881553e-04   2.1300130e-04   7.8049736e-05   2.5124815e-04   0.0000000e+00   1.3226032e-04   1.2708982e-05   2.9473122e-05   1.4217978e-04   1.6191818e-04   2.0825042e-04   1.8647607e-04   4.9638670e-05   6.6228348e-05   6.4890586e-06   1.0521360e-04   1.2495256e-04   1.0468953e-04   1.8192959e-04   1.5342691e-04   2.6373826e-04  -2.1324778e-05   1.0047496e-04   1.0988677e-04   0.0000000e+00   1.5587528e-04  -6.5912394e-05   2.2117377e-05   2.4892370e-06   8.3188858e-05   5.9838237e-05   1.7001820e-04   2.3399204e-04   4.5615005e-05   3.3152777e-05   2.4552807e-05   9.5226509e-05  -7.1767788e-05  -1.3688845e-03  -1.1285420e-05   1.5334472e-04   4.9984702e-05   0.0000000e+00  -7.1951275e-05  -7.7620011e-06   7.6359142e-05   5.4191281e-05   2.5661969e-04   7.7124429e-05  -1.2461531e-04   6.6367697e-05  -2.2416378e-04  -5.4475606e-05   1.6991094e-04   4.5487969e-04   3.0689055e-04  -2.0030728e-04   3.4691128e-05   9.3451304e-05  -2.3631520e-05  -6.9256204e-05  -4.0655350e-04   0.0000000e+00  -2.8704033e-04   2.2469026e-04  -1.0726804e-04   2.1392740e-06  -3.2161999e-04  -6.3545990e-04   2.4999493e-04   2.5592913e-04   3.5744024e-05   3.3096594e-05  -3.4573575e-05  -8.9773662e-04  -4.5246081e-04
