   8.6205306e-05   6.0242467e-05   2.7466373e-05   5.2948120e-05   4.1058696e-05   3.5517536e-05   2.8649212e-05   2.6745128e-05   2.3174285e-05   2.6755461e-05   2.0475609e-06   2.7790510e-05   2.6555322e-05  -3.2545994e-06   4.1457588e-06   9.6033901e-06  -2.4112127e-05  -1.0423125e-05   4.1392284e-05   5.9059147e-05   1.0532375e-05   0.0000000e+00   2.3836019e-05   1.0509677e-04   4.6718611e-05   3.9670998e-05   1.9290479e-05   6.4874225e-05   4.4441081e-05   2.7857854e-05   7.5228491e-05  -4.2982694e-06  -1.0617185e-06   1.1594217e-05   3.2100246e-05   4.6600820e-05   5.2448423e-05   6.0001587e-05   2.5711082e-05   2.0105605e-05   2.3089393e-05   7.1060326e-05   3.4867149e-05   3.4106742e-05  -9.0188994e-05  -1.6627558e-05   3.4018909e-06   1.0184887e-04   1.2341519e-04   6.3677744e-05  -9.7442427e-05  -1.1373335e-04  -5.5026469e-05   2.8597531e-05   4.1721420e-05   4.0521774e-05   7.9165470e-05   7.4905658e-05   6.6933703e-07   0.0000000e+00   4.5627985e-05   4.5036031e-05   4.3919631e-05   2.7329743e-05   6.5399246e-05   7.6403720e-05   9.6513833e-05   4.3674199e-05   3.8726511e-05  -2.4071310e-05   2.2605489e-05   4.7551297e-05   8.7328859e-06  -9.7759262e-06   4.1324126e-05   2.5941864e-05  -1.4558810e-04  -1.2115234e-04  -2.4469600e-05  -1.3416343e-04  -6.2040162e-05  -1.4602826e-04  -5.1464184e-04  -4.8756905e-04  -1.9910192e-04  -1.7653932e-04  -1.8191969e-04  -2.1628591e-04  -7.8274873e-05  -2.2947060e-04  -2.4218417e-04  -1.6182345e-04  -2.8809255e-04  -1.9302108e-04  -2.4789237e-04  -3.0827849e-04  -3.4100844e-04   0.0000000e+00  -1.2060115e-04   6.3524315e-05   3.6557535e-05  -2.3036670e-04  -7.4295237e-05   5.7092009e-05   2.0467283e-05  -1.0790590e-04   2.4477195e-05  -2.7730608e-04  -1.6342024e-04   1.1283901e-04   1.3509607e-04   8.0941109e-05   1.0557765e-04   2.3019772e-06  -1.3922995e-04  -5.1569988e-05   1.0422305e-05  -3.3247609e-05   6.1646752e-06  -2.3838715e-06   4.2109391e-05  -7.4585280e-06   3.9394905e-06   6.9239108e-06  -5.3965654e-06  -1.2056430e-05   1.6186290e-05  -1.8192024e-05   2.4944539e-05  -9.5478688e-06  -1.5592659e-05  -1.0632248e-05  -1.5276501e-05   6.9308924e-06   4.6704448e-06   0.0000000e+00   5.2813967e-06  -2.1647864e-06   1.8430667e-05   2.8556154e-07   1.1844273e-05   3.1238304e-05  -1.5906188e-05  -1.7457247e-05   4.3321546e-05   2.8366230e-06  -1.8649210e-05  -1.3949712e-05   2.3112803e-06  -4.0137553e-05   3.0182998e-05   2.3030705e-05   6.1111462e-05   2.8957941e-05   4.7233255e-06   2.7597190e-05   2.1715000e-05   4.1209678e-05   3.7877938e-05  -3.5845920e-05   1.2764744e-05   4.6624260e-05   7.2182510e-05   8.4014032e-05   4.9879779e-05   4.2332489e-05  -5.7148643e-06   1.2812235e-05  -9.6796251e-06   2.6114743e-05   5.8764816e-05   3.4642892e-05   4.3561450e-05   0.0000000e+00   2.9703775e-05  -4.3566490e-05   4.6615985e-06   5.3521028e-05   4.3501789e-05   3.0572366e-05   1.9193074e-05   2.2068009e-05  -8.9808959e-05   5.3793597e-05   3.1233825e-05  -1.2937700e-05   9.6443244e-06  -7.0923792e-06  -1.0610749e-04  -4.0556181e-05   1.2312847e-05   1.2110977e-05   2.0791431e-06  -4.2436617e-06   7.0321282e-06   1.7014734e-05   6.2951020e-05   8.7642556e-05  -3.0537200e-06   7.1132647e-06   1.7700908e-05   3.3604017e-05   4.2761486e-06   1.3648548e-05   8.8547301e-05  -1.9027259e-05  -1.6375942e-05   3.8343097e-06   1.3989190e-05   3.6597595e-05   3.9990903e-05   0.0000000e+00   1.8445511e-05  -5.7326327e-06  -3.2429121e-05   7.2616404e-06  -6.3406533e-06  -2.6733321e-05  -3.7913717e-06   1.7060238e-05  -9.5177754e-06   2.7803153e-05   2.9149182e-05  -5.1439921e-06  -9.8309332e-06  -1.0010172e-05   1.7529196e-05   4.8292064e-05  -3.1220728e-05  -3.9707930e-05  -1.8701060e-05  -4.9202138e-05  -3.1469114e-05  -4.3808476e-05  -1.0975672e-05  -5.1605852e-05  -3.3480220e-05   8.3953440e-06  -2.5996238e-05  -5.5763422e-05   1.6316692e-05  -1.6409773e-05   8.0621396e-06   8.4665278e-06  -1.6834256e-05  -3.4626919e-05  -1.1125866e-04  -1.4318376e-04  -2.2135047e-05   0.0000000e+00  -2.9191626e-05  -1.0783789e-04  -1.2664500e-04  -4.4399186e-05  -3.1030817e-05  -8.2927721e-05  -8.3349378e-05   6.3943802e-06  -9.0327154e-05  -3.2284139e-05  -5.2782558e-05  -3.4997668e-05  -4.4950724e-05  -2.8885420e-06  -4.0164479e-05  -2.1462418e-05  -5.8828349e-05  -6.4648907e-05  -7.3517021e-05  -8.9776398e-06  -9.9210149e-05  -7.4880072e-05  -3.7976719e-04  -3.6869511e-04  -1.7029621e-04  -1.2648704e-04  -6.9738281e-05  -4.4257766e-05  -1.0171296e-04  -1.4310521e-04  -1.5356675e-04  -1.2343821e-04  -1.2299336e-04  -7.9347292e-05  -6.6493871e-05  -1.5207058e-04  -1.4777207e-05   0.0000000e+00  -1.1740057e-04  -2.0199699e-04  -9.1171910e-05  -9.6313666e-05  -5.7379077e-05  -1.2836095e-04  -1.7122074e-04  -6.0946052e-05  -3.1434501e-04  -8.6467492e-06  -8.0599635e-05  -2.6061839e-05  -4.6729037e-05  -1.1835403e-04  -5.9258890e-05  -8.5334782e-05   2.5164851e-05  -8.6250100e-06  -1.3963484e-05  -3.5979478e-05  -1.1734402e-06  -1.3808140e-05   6.4907390e-05  -5.9903364e-05   1.8501192e-05  -9.3393075e-06  -3.2186241e-07  -4.8959420e-05   4.1325017e-05   2.3052566e-05  -6.4569817e-05   7.9087777e-05   7.1079379e-05   2.5888937e-05  -2.5310878e-05  -2.6105995e-05  -5.1351366e-05   0.0000000e+00   2.7565469e-05  -6.3912488e-05  -4.3851441e-05   5.2801123e-05  -6.1877740e-06  -2.7779574e-05   4.1135306e-05   4.0005768e-05  -2.5032717e-05   1.3297512e-05  -2.0041821e-05  -3.2581048e-05  -4.2980318e-05   2.8476545e-05  -5.3384908e-06  -2.7185512e-05   1.9963254e-06   8.4197913e-05   6.1843833e-06  -1.0702088e-05   4.6916517e-06   4.2433393e-05   5.5998689e-05   8.5629444e-05   5.2633486e-05   8.2718475e-05   1.0239195e-04   1.1067992e-04   1.0479115e-04   1.4261532e-04   1.5362228e-04   3.2854577e-05   6.6389934e-05   5.3793249e-05   2.7002559e-05   4.7630473e-05   1.5649893e-04   0.0000000e+00   4.1561479e-05  -9.5407826e-05  -5.1295659e-05   4.2566437e-05   2.2835284e-05  -5.0120223e-05  -1.4601051e-05   4.2494147e-05  -2.1304793e-04   9.4594643e-05   1.7409309e-05  -8.4117948e-05  -1.3120719e-05  -1.4905231e-05  -1.2591468e-04  -5.6430034e-05   9.0925021e-05   1.3603702e-04   5.5667278e-05  -3.7141629e-06   1.0652935e-04   1.9141717e-04   2.7238602e-04   2.4548782e-05   1.5669968e-04   2.9198376e-04   2.6529081e-04   3.2780205e-04   3.0781226e-04   2.5481820e-04   5.7216114e-05   2.3130681e-04   1.6267479e-04   1.6580544e-04   3.0972420e-04   2.9623028e-04   2.4263570e-04   0.0000000e+00   2.3629182e-04   8.2101030e-05   1.0272618e-05   3.4964324e-04   2.4452863e-04   1.3647656e-04   2.2245088e-04   2.2436402e-04   8.2878825e-05   2.3457862e-04   3.8963581e-04   1.5985878e-04   1.6966404e-04   2.6489251e-04  -1.7589546e-04   4.6875781e-05   1.8454919e-04   1.7718337e-04  -1.1669104e-05   2.6106493e-04  -5.0365638e-05  -1.9085409e-04  -2.6013490e-04   3.7359782e-05  -2.8447740e-05  -2.5899384e-05  -1.2339298e-04  -3.3166005e-04  -9.7377346e-05  -2.7806146e-05   4.5018813e-05  -1.4329321e-04  -1.0669733e-04  -1.8112152e-04  -2.4152715e-04  -5.1048131e-04  -2.1674119e-04   0.0000000e+00  -1.6917513e-04  -5.0089249e-04  -3.4735424e-05  -2.1137327e-04  -1.7609223e-04  -1.8001737e-04  -2.6948728e-04  -3.7662444e-05  -4.0547778e-04  -7.9399901e-05  -2.2919342e-04  -3.3571262e-04  -1.2702606e-04  -3.5492624e-04  -4.0327649e-04  -4.3055223e-04
   9.5165016e-05   6.6929425e-05   2.9826366e-05   5.6968691e-05   4.4427882e-05   3.8260847e-05   3.5815073e-05   2.8585692e-05   2.6496762e-05   2.8775803e-05  -9.0368187e-07   2.9606907e-05   3.4164459e-05  -1.4323238e-06   5.2777480e-06   9.0465923e-06  -3.0879158e-05  -1.4352201e-05   4.4445842e-05   6.3924891e-05   1.0875477e-05   0.0000000e+00   2.5735047e-05   1.1541584e-04   5.0369200e-05   4.4307686e-05   2.0728793e-05   7.2089782e-05   5.3370822e-05   3.3075820e-05   8.4082991e-05  -5.8919724e-06  -1.9037719e-06   1.1984559e-05   3.6530708e-05   5.6584239e-05   5.9595482e-05   7.0696539e-05   7.4509368e-05   3.9204821e-05   2.4578628e-05   1.0914026e-04   3.5270213e-05   3.0934668e-05  -1.4629877e-04  -3.4927585e-05  -6.0827049e-06   1.0659354e-04   1.3216868e-04   5.7800103e-05  -1.3424158e-04  -1.5189210e-04  -7.0671882e-05   2.1236802e-05   3.1852414e-05   3.7276385e-05   8.2135730e-05   6.8165113e-05  -7.9187827e-06   0.0000000e+00   4.5100547e-05   4.4796969e-05   4.9951845e-05   2.7137035e-05   6.6983837e-05   8.3103466e-05   9.9052497e-05   4.2338935e-05   2.1772806e-05  -2.8334398e-05   2.0546866e-05   5.1708429e-05   3.5999044e-06  -2.5963304e-05   4.6629691e-05   1.9424528e-05  -9.3930215e-05  -1.2194482e-04  -2.5410836e-05  -9.1088077e-05  -6.7142908e-05  -1.6902657e-04  -5.2939422e-04  -4.9056616e-04  -2.4353975e-04  -1.9772314e-04  -2.0267024e-04  -2.7144438e-04  -1.2011250e-04  -2.5671306e-04  -2.8948476e-04  -2.0936872e-04  -3.4962794e-04  -2.3793619e-04  -2.9615956e-04  -3.7689561e-04  -3.9144552e-04   0.0000000e+00  -1.4266191e-04   3.3226820e-05   4.8783872e-05  -2.5575597e-04  -8.5455952e-05   5.8633056e-05   1.7214785e-05  -9.2661054e-05   4.1425636e-05  -3.0746381e-04  -1.9222734e-04   9.4947692e-05   1.3186742e-04   8.8748910e-05   7.4178182e-05  -4.3039462e-05  -1.5449420e-04  -5.8020227e-05   1.2368644e-05  -3.4247763e-05   7.1982560e-06  -3.3326608e-06   4.5981559e-05   5.2692488e-07   4.5149530e-06   5.9057283e-06  -9.9929831e-06  -1.8434111e-05   1.5978568e-05  -1.6757884e-05   3.1591004e-05  -1.3212464e-05  -2.3638981e-05  -1.6462153e-05  -2.0624625e-05   5.0644990e-06  -9.8183730e-07   0.0000000e+00   1.6331541e-06  -3.7125658e-06   2.2236430e-05  -4.1773109e-06   6.7551211e-06   3.1777506e-05  -2.1951444e-05  -2.0716705e-05   4.3854628e-05  -8.3108354e-09  -2.7084690e-05  -1.9861043e-05   8.7333923e-07  -4.9278730e-05   3.3122446e-05   2.2901384e-05   6.3140519e-05   2.8751136e-05   1.8393338e-06   2.3205556e-05   2.0768176e-05   4.6735137e-05   3.3385464e-05  -3.9536376e-05   4.4807162e-06   5.1456998e-05   8.3288213e-05   9.6638221e-05   4.8834250e-05   4.6273101e-05  -7.6450264e-06   9.4347074e-06  -1.2075731e-05   3.1464122e-05   6.5544600e-05   3.8192669e-05   4.3866571e-05   0.0000000e+00   2.8173542e-05  -5.4383557e-05  -1.4864942e-06   5.3777418e-05   4.8502156e-05   2.8948701e-05   1.4883346e-05   2.2081949e-05  -1.0793327e-04   5.6533011e-05   4.0942611e-05  -1.2761998e-05   7.5206430e-06  -1.1062226e-05  -1.2831982e-04  -5.1060904e-05   1.0990395e-05   1.1513346e-05   2.9617596e-06  -1.6042115e-08   6.3796156e-06   1.5940639e-05   6.6192527e-05   9.8417745e-05  -2.7567959e-06   5.2463674e-06   1.2058518e-05   3.2366162e-05   1.3602735e-07   1.4270257e-05   9.5568754e-05  -2.2896494e-05  -2.4034907e-05  -2.2821257e-06   1.0090508e-05   3.5473817e-05   3.7655577e-05   0.0000000e+00   1.5598480e-05  -8.5304469e-06  -3.0902540e-05  -6.5675344e-07  -1.4338855e-05  -3.0854526e-05  -1.5952486e-05   1.0530578e-05  -1.5827842e-05   2.4987263e-05   2.5205543e-05  -8.5117406e-06  -1.5762412e-05  -2.4841149e-05   2.0500573e-05   4.7077179e-05  -4.2570172e-05  -5.1604888e-05  -2.1977463e-05  -6.0410525e-05  -3.4830871e-05  -4.2014802e-05  -1.3606016e-05  -5.1558472e-05  -3.7401988e-05   1.4611880e-05  -1.6659924e-05  -4.8656552e-05   1.4902213e-05  -1.9236115e-05   1.2674146e-05   1.1451507e-05  -1.2541391e-05  -3.0684320e-05  -1.1290478e-04  -1.4973081e-04  -1.4283284e-05   0.0000000e+00  -2.7885405e-05  -1.2035281e-04  -1.4188097e-04  -3.7187539e-05  -2.3369839e-05  -9.0766628e-05  -9.3489568e-05   6.1636669e-06  -9.2455846e-05  -2.7570731e-05  -4.5216728e-05  -2.9619890e-05  -4.7128848e-05  -1.4577441e-06  -4.6917281e-05  -2.8150545e-05  -7.7552873e-05  -8.0023025e-05  -8.5406264e-05  -2.0100434e-05  -1.1600981e-04  -9.1616998e-05  -4.2250031e-04  -4.0349283e-04  -1.9668926e-04  -1.4461086e-04  -7.5357912e-05  -5.8503166e-05  -1.1341539e-04  -1.5287023e-04  -1.6266701e-04  -1.3794437e-04  -1.3358438e-04  -8.2821345e-05  -8.1242662e-05  -1.7760968e-04  -1.5742526e-05   0.0000000e+00  -1.3250574e-04  -2.3099001e-04  -1.1471800e-04  -1.1595003e-04  -7.2389053e-05  -1.5217295e-04  -1.8353783e-04  -6.7597739e-05  -3.4195532e-04  -1.0410570e-05  -8.9704801e-05  -3.0765884e-05  -5.5403472e-05  -1.2487139e-04  -7.7107992e-05  -9.8635295e-05   1.7651322e-05  -2.1169521e-05  -2.5907360e-05  -5.7322912e-05  -8.6638414e-06  -2.0244299e-05   5.7928710e-05  -6.9739263e-05  -7.9816868e-07  -1.9643881e-05   4.8487941e-06  -4.8661416e-05   3.7745520e-05   2.5160923e-05  -6.9326380e-05   8.6151315e-05   8.5390774e-05   3.0293631e-05  -2.7756573e-05  -3.5568090e-05  -5.3546688e-05   0.0000000e+00   2.1350987e-05  -9.6359071e-05  -7.2210256e-05   5.4653703e-05  -1.2478881e-05  -5.5059037e-05   3.5096545e-05   3.7789397e-05  -4.5663476e-05   1.6490650e-05  -1.4392674e-05  -4.0574292e-05  -5.6919699e-05   2.8251583e-05  -1.7268435e-05  -4.3097787e-05   1.0076920e-05   9.5741200e-05   6.2067449e-06  -9.9997323e-06   5.0515037e-06   4.6228355e-05   6.2879046e-05   1.0209716e-04   5.3213548e-05   8.9791102e-05   1.1051676e-04   1.2127192e-04   1.2047413e-04   1.6638524e-04   1.7343846e-04   3.5776020e-05   7.1093965e-05   6.0956790e-05   3.3410699e-05   5.0736742e-05   1.6675977e-04   0.0000000e+00   4.0056877e-05  -1.0886914e-04  -5.4543154e-05   3.1420489e-05   1.1041644e-05  -6.2933859e-05  -2.8212281e-05   3.7780647e-05  -2.3674720e-04   9.5028498e-05   1.0430611e-05  -9.5788312e-05  -2.4722562e-05  -2.7911746e-05  -1.4479650e-04  -7.3407881e-05   9.7146255e-05   1.5062595e-04   6.2321396e-05  -9.9332440e-06   1.1901734e-04   2.3461966e-04   3.1574159e-04   1.1978750e-05   1.7089886e-04   3.3044022e-04   3.1612509e-04   3.9407929e-04   3.5605588e-04   2.7822831e-04   6.4276791e-05   2.6866963e-04   2.0169124e-04   2.0808020e-04   3.8001690e-04   3.7257942e-04   2.9581220e-04   0.0000000e+00   2.6736605e-04   9.8565707e-05   1.7446036e-05   3.9681304e-04   2.7874082e-04   1.5455479e-04   2.4655022e-04   2.4583998e-04   1.1328151e-04   2.7923133e-04   4.4501787e-04   1.9485383e-04   1.8954657e-04   3.0525213e-04  -1.8497514e-04   6.5960691e-05   2.0492158e-04   1.9034941e-04  -1.0478393e-05   2.9698305e-04  -5.7337580e-05  -2.1699911e-04  -2.8176209e-04   7.0869234e-05  -2.3983794e-05  -1.5249101e-05  -1.1853154e-04  -3.5967069e-04  -1.0831983e-04  -3.1285519e-05   5.2296100e-05  -1.4872156e-04  -1.2358285e-04  -1.9985713e-04  -2.6995669e-04  -5.8828038e-04  -2.4666746e-04   0.0000000e+00  -1.7499293e-04  -5.5018691e-04  -4.1456255e-05  -2.2431677e-04  -1.9005426e-04  -1.9769414e-04  -2.9466733e-04  -4.2886334e-05  -4.5151800e-04  -8.3958285e-05  -2.5347665e-04  -3.5898881e-04  -1.3721496e-04  -3.7760455e-04  -4.4284774e-04  -4.7563040e-04
   1.0261732e-04   7.2368478e-05   3.1397174e-05   5.9555818e-05   4.6746975e-05   4.0084025e-05   4.2642904e-05   2.8546493e-05   2.9023078e-05   3.0015775e-05  -4.3743428e-06   3.0587723e-05   4.2026833e-05   4.0174191e-07   5.7482653e-06   7.8880059e-06  -3.8010967e-05  -1.8571625e-05   4.6382888e-05   6.7207339e-05   1.0698218e-05   0.0000000e+00   2.6992168e-05   1.2280490e-04   5.2712294e-05   4.8207116e-05   2.1751919e-05   7.7996841e-05   6.1342305e-05   3.7871077e-05   9.0774961e-05  -7.6006577e-06  -2.9067552e-06   1.1879749e-05   4.0252654e-05   6.5814918e-05   6.5969126e-05   8.0744829e-05   1.3392166e-04   6.2567231e-05   2.5267017e-05   1.5279659e-04   3.3872171e-05   2.4925441e-05  -2.0922373e-04  -5.8546131e-05  -1.7202437e-05   1.0842036e-04   1.3769792e-04   4.7406825e-05  -1.7453029e-04  -1.9229491e-04  -8.9617782e-05   1.1393276e-05   1.9514506e-05   3.2085785e-05   8.0926830e-05   5.4537055e-05  -1.9251911e-05   0.0000000e+00   4.2174541e-05   4.1299325e-05   5.6144156e-05   2.5685322e-05   6.6732573e-05   8.8766172e-05   9.8581688e-05   3.9053098e-05  -5.1041782e-07  -3.2549932e-05   1.6778896e-05   5.4476496e-05  -3.2801799e-06  -4.6678010e-05   5.0958926e-05   1.0608185e-05  -1.5755842e-05  -1.1496976e-04  -2.5472016e-05  -2.6759119e-05  -7.2113391e-05  -1.9274285e-04  -5.4203518e-04  -4.9098712e-04  -2.8766326e-04  -2.1526420e-04  -2.2087724e-04  -3.3081139e-04  -1.7178787e-04  -2.8436927e-04  -3.4218973e-04  -2.5518348e-04  -4.1005344e-04  -2.8345692e-04  -3.4415984e-04  -4.4896891e-04  -4.3889710e-04   0.0000000e+00  -1.6568578e-04  -8.2475647e-06   5.9945861e-05  -2.7757919e-04  -9.5303801e-05   5.8536665e-05   1.4632664e-05  -7.0866593e-05   5.2122865e-05  -3.3214366e-04  -2.2010063e-04   7.2108748e-05   1.2591950e-04   9.4200116e-05   3.4680529e-05  -9.4079839e-05  -1.6725641e-04  -6.4180631e-05   1.3693978e-05  -3.5421203e-05   7.5084265e-06  -4.8776126e-06   4.8357600e-05   9.3039683e-06   4.4282645e-06   3.7457312e-06  -1.5136260e-05  -2.5660141e-05   1.4801977e-05  -1.4781847e-05   3.7520436e-05  -1.7356083e-05  -3.2151071e-05  -2.2475211e-05  -2.6401425e-05   2.0056893e-06  -7.6510739e-06   0.0000000e+00  -2.9277903e-06  -6.3012666e-06   2.5041400e-05  -9.4990078e-06   5.6569616e-07   3.0690963e-05  -2.7901062e-05  -2.3985690e-05   4.2915997e-05  -3.4551752e-06  -3.5563712e-05  -2.5965478e-05  -1.0501053e-06  -5.8000920e-05   3.4961017e-05   2.1522670e-05   6.3008889e-05   2.7392638e-05  -1.6717419e-06   1.7361725e-05   1.8639536e-05   5.0791648e-05   2.7189096e-05  -4.4024982e-05  -5.9201359e-06   5.4465816e-05   9.2504088e-05   1.0710342e-04   4.6241348e-05   4.8873007e-05  -1.1381106e-05   4.0743976e-06  -1.5204835e-05   3.6062339e-05   7.0501506e-05   4.0131000e-05   4.2086974e-05   0.0000000e+00   2.4746848e-05  -6.5003822e-05  -8.4484342e-06   5.1291678e-05   5.1939473e-05   2.5753918e-05   9.4189835e-06   2.1076629e-05  -1.2699121e-04   5.7264320e-05   5.0015240e-05  -1.2583197e-05   4.1067223e-06  -1.6201792e-05  -1.5106451e-04  -6.2011514e-05   8.5695273e-06   9.7887448e-06   3.5470045e-06   4.2285921e-06   5.0072675e-06   1.3615335e-05   6.7022918e-05   1.0658695e-04  -2.8928337e-06   2.4680764e-06   4.9819865e-06   2.9365486e-05  -5.0450344e-06   1.4585722e-05   9.9203642e-05  -2.6587457e-05  -3.1883679e-05  -9.1998456e-06   4.8359460e-06   3.2165853e-05   3.3497479e-05   0.0000000e+00   1.1447309e-05  -1.2292508e-05  -2.8384887e-05  -1.0013788e-05  -2.3606972e-05  -3.5011899e-05  -2.9670910e-05   2.3607412e-06  -2.2787274e-05   2.0790940e-05   1.9470911e-05  -1.2228900e-05  -2.2229734e-05  -4.1321125e-05   2.3411433e-05   4.3846356e-05  -5.6676588e-05  -6.5289022e-05  -2.5899423e-05  -7.3311628e-05  -3.8550258e-05  -3.9291142e-05  -1.7356759e-05  -4.9606234e-05  -4.1907581e-05   1.9495851e-05  -5.8088989e-06  -3.9093138e-05   1.1848688e-05  -2.2597767e-05   1.8396544e-05   1.3615126e-05  -7.0139299e-06  -2.5158012e-05  -1.1155853e-04  -1.5323380e-04  -4.6422207e-06   0.0000000e+00  -2.6076676e-05  -1.3270252e-04  -1.5735789e-04  -2.8365773e-05  -1.4267547e-05  -9.8828125e-05  -1.0304703e-04   5.2657910e-06  -9.3896466e-05  -2.1299609e-05  -3.5117205e-05  -2.3157672e-05  -4.8915465e-05  -1.7451877e-07  -5.4381353e-05  -3.5888687e-05  -9.7877345e-05  -9.6379996e-05  -9.6675674e-05  -3.4088699e-05  -1.3227552e-04  -1.0808921e-04  -4.5751823e-04  -4.2933685e-04  -2.2074020e-04  -1.6135237e-04  -7.9656029e-05  -7.2617702e-05  -1.2298810e-04  -1.5921079e-04  -1.6672993e-04  -1.5065859e-04  -1.4258071e-04  -8.4588257e-05  -9.6001607e-05  -2.0128703e-04  -1.5068057e-05   0.0000000e+00  -1.4543538e-04  -2.5888822e-04  -1.4048816e-04  -1.3430930e-04  -8.7552247e-05  -1.7579404e-04  -1.9124193e-04  -7.2425010e-05  -3.6284083e-04  -1.1445255e-05  -9.5870829e-05  -3.4964372e-05  -6.3550499e-05  -1.2642638e-04  -9.5767560e-05  -1.1049713e-04   7.0080158e-06  -3.5758486e-05  -3.9377919e-05  -8.1184350e-05  -1.7959214e-05  -2.7963921e-05   4.7167218e-05  -7.8552048e-05  -2.4170648e-05  -3.1207460e-05   1.0896064e-05  -4.7119498e-05   3.2152033e-05   2.7117765e-05  -7.1994404e-05   9.2458324e-05   1.0079625e-04   3.4438467e-05  -3.0782485e-05  -4.7320897e-05  -5.5099508e-05   0.0000000e+00   1.2576177e-05  -1.3101615e-04  -1.0339718e-04   5.3787549e-05  -2.0147239e-05  -8.5343589e-05   2.6488012e-05   3.3917341e-05  -6.8501485e-05   1.8565027e-05  -9.1435661e-06  -4.8698000e-05  -7.1579713e-05   2.7102715e-05  -3.1115280e-05  -6.0765868e-05   1.7577432e-05   1.0413533e-04   5.2737185e-06  -1.1131382e-05   4.6802807e-06   4.8391782e-05   6.5321284e-05   1.1572624e-04   5.0774169e-05   9.3826947e-05   1.1615166e-04   1.2913715e-04   1.3502543e-04   1.8809594e-04   1.8912793e-04   3.8271000e-05   7.4896778e-05   6.8045287e-05   3.9638061e-05   5.1606581e-05   1.7267811e-04   0.0000000e+00   3.6298009e-05  -1.2240207e-04  -5.7721796e-05   1.7035605e-05  -3.3816829e-06  -7.6493749e-05  -4.2382176e-05   3.0762731e-05  -2.5600991e-04   9.2058503e-05   2.4079101e-06  -1.0520080e-04  -3.7407039e-05  -4.0492655e-05  -1.6133798e-04  -9.0510501e-05   1.0139463e-04   1.6240875e-04   6.8194651e-05  -1.8112585e-05   1.3066746e-04   2.7871664e-04   3.5836729e-04   9.5852859e-08   1.8245386e-04   3.6462601e-04   3.6616569e-04   4.6127594e-04   4.0312818e-04   2.9889182e-04   7.2130256e-05   3.0463357e-04   2.4237589e-04   2.5293320e-04   4.5207932e-04   4.5411628e-04   3.5055474e-04   0.0000000e+00   2.9437947e-04   1.1363264e-04   2.4508823e-05   4.3774698e-04   3.0925682e-04   1.6959759e-04   2.6515647e-04   2.6085923e-04   1.4478058e-04   3.2185570e-04   4.9345135e-04   2.2840327e-04   2.0537975e-04   3.4086821e-04  -1.9065652e-04   8.5193201e-05   2.1913214e-04   1.9638601e-04  -9.6841053e-06   3.2542896e-04  -6.4626322e-05  -2.4118768e-04  -3.0064235e-04   1.0630903e-04  -2.0223907e-05  -4.6758065e-06  -1.1038689e-04  -3.8122268e-04  -1.1917766e-04  -3.7512394e-05   5.8607537e-05  -1.5189379e-04  -1.4090629e-04  -2.1595618e-04  -2.9518083e-04  -6.6020632e-04  -2.7339691e-04   0.0000000e+00  -1.7607983e-04  -5.9076943e-04  -4.9459461e-05  -2.3173026e-04  -1.9957133e-04  -2.1318575e-04  -3.1304329e-04  -4.7230696e-05  -4.9023591e-04  -8.6446535e-05  -2.7277296e-04  -3.7289820e-04  -1.4353992e-04  -3.8909755e-04  -4.7263784e-04  -5.1062528e-04
   1.0832547e-04   7.6283437e-05   3.2060959e-05   6.0568112e-05   4.7902570e-05   4.0894346e-05   4.8704181e-05   2.6413148e-05   3.0409566e-05   3.0383433e-05  -8.2001134e-06   3.0676318e-05   4.9839707e-05   2.1178059e-06   5.4254994e-06   6.0697799e-06  -4.5357449e-05  -2.2945612e-05   4.7090189e-05   6.8685158e-05   9.9772323e-06   0.0000000e+00   2.7535001e-05   1.2677156e-04   5.3585969e-05   5.1209068e-05   2.2293189e-05   8.2316323e-05   6.7762843e-05   4.1987340e-05   9.4901819e-05  -9.3719866e-06  -4.0974494e-06   1.1224244e-05   4.3045234e-05   7.3758854e-05   7.1377627e-05   8.9777433e-05   2.0207240e-04   8.9781621e-05   2.5191877e-05   2.0074728e-04   3.0764774e-05   1.6298825e-05  -2.7631047e-04  -8.6981911e-05  -2.9121461e-05   1.0771063e-04   1.4014953e-04   3.3029623e-05  -2.1688628e-04  -2.3323262e-04  -1.1166049e-04  -3.4554079e-07   5.6379958e-06   2.5351957e-05   7.5397832e-05   3.4151777e-05  -3.2860970e-05   0.0000000e+00   3.7155105e-05   3.4400142e-05   6.2775309e-05   2.3302019e-05   6.5123530e-05   9.3687595e-05   9.5358295e-05   3.4002468e-05  -2.7502299e-05  -3.6320945e-05   1.1475373e-05   5.5752178e-05  -1.1640444e-05  -7.1884639e-05   5.4167600e-05  -1.5597440e-07   8.9122911e-05  -9.9440628e-05  -2.4640720e-05   5.8553332e-05  -7.7131735e-05  -2.1685168e-04  -5.5603622e-04  -4.9276164e-04  -3.2945231e-04  -2.2840874e-04  -2.3588454e-04  -3.9269702e-04  -2.3231406e-04  -3.1176598e-04  -4.0001747e-04  -2.9668757e-04  -4.6684054e-04  -3.2776285e-04  -3.9018813e-04  -5.2270970e-04  -4.8178544e-04   0.0000000e+00  -1.8913953e-04  -6.0264957e-05   6.9230346e-05  -2.9513101e-04  -1.0310473e-04   5.7136181e-05   1.3090626e-05  -4.3939467e-05   5.3331954e-05  -3.5017404e-04  -2.4574681e-04   4.6047814e-05   1.1848922e-04   9.6720042e-05  -1.0843711e-05  -1.4827874e-04  -1.7732358e-04  -7.0020648e-05   1.4223014e-05  -3.7079084e-05   6.9063370e-06  -7.0996362e-06   4.9102606e-05   1.8313368e-05   3.5592161e-06   3.7804023e-07  -2.0582867e-05  -3.3496941e-05   1.2648495e-05  -1.2502531e-05   4.2354107e-05  -2.1889420e-05  -4.0694269e-05  -2.8333601e-05  -3.2461221e-05  -2.3088159e-06  -1.5013777e-05   0.0000000e+00  -8.2180267e-06  -1.0104203e-05   2.6458659e-05  -1.5465590e-05  -6.3490891e-06   2.7896986e-05  -3.3390504e-05  -2.7184640e-05   4.0494575e-05  -7.3405029e-06  -4.3612144e-05  -3.1985053e-05  -3.4269453e-06  -6.5925471e-05   3.5463173e-05   1.8863643e-05   6.0622178e-05   2.4904036e-05  -5.6571765e-06   1.0322146e-05   1.5371332e-05   5.3014643e-05   1.9731601e-05  -4.9539953e-05  -1.8004851e-05   5.5422009e-05   9.9380504e-05   1.1483643e-04   4.2414668e-05   4.9984182e-05  -1.7083521e-05  -3.1083089e-06  -1.8950161e-05   3.9689932e-05   7.3294785e-05   4.0119555e-05   3.8241962e-05   0.0000000e+00   1.9494739e-05  -7.5076315e-05  -1.5870048e-05   4.6064179e-05   5.3615329e-05   2.1133764e-05   3.1204400e-06   1.9136178e-05  -1.4651787e-04   5.6013293e-05   5.7860854e-05  -1.2508623e-05  -5.3662485e-07  -2.2428786e-05  -1.7383106e-04  -7.3117199e-05   5.0813501e-06   6.9015442e-06   3.7195976e-06   8.0682390e-06   2.8983923e-06   1.0069269e-05   6.5464975e-05   1.1174582e-04  -3.6100828e-06  -1.1428629e-06  -3.0953542e-06   2.4743220e-05  -1.1050858e-05   1.4663572e-05   9.9241447e-05  -2.9900092e-05  -3.9413952e-05  -1.6467309e-05  -1.5758380e-06   2.6734885e-05   2.7835971e-05   0.0000000e+00   6.1996273e-06  -1.7042899e-05  -2.5171601e-05  -2.0328625e-05  -3.3757687e-05  -3.9134378e-05  -4.4239296e-05  -6.9905271e-06  -3.0078163e-05   1.5526657e-05   1.2311738e-05  -1.6112537e-05  -2.8922181e-05  -5.8579126e-05   2.6210077e-05   3.8865034e-05  -7.3325714e-05  -8.0385234e-05  -3.0489493e-05  -8.7622283e-05  -4.2720450e-05  -3.6037524e-05  -2.2426981e-05  -4.5991661e-05  -4.7026259e-05   2.2454033e-05   5.8348056e-06  -2.7737364e-05   7.0542801e-06  -2.6518783e-05   2.5098601e-05   1.4747529e-05  -4.3958649e-07  -1.8413308e-05  -1.0763258e-04  -1.5398789e-04   6.2107349e-06   0.0000000e+00  -2.4084497e-05  -1.4484369e-04  -1.7303577e-04  -1.8709753e-05  -4.3887040e-06  -1.0732985e-04  -1.1201312e-04   3.5404972e-06  -9.5402109e-05  -1.3894530e-05  -2.3306110e-05  -1.6192684e-05  -5.0509088e-05   6.0915180e-07  -6.2689310e-05  -4.4692973e-05  -1.1949842e-04  -1.1367200e-04  -1.0710976e-04  -5.0896198e-05  -1.4773942e-04  -1.2384683e-04  -4.8412357e-04  -4.4565819e-04  -2.4183622e-04  -1.7645959e-04  -8.2722735e-05  -8.6006404e-05  -1.3036903e-04  -1.6233397e-04  -1.6569664e-04  -1.6149178e-04  -1.5013295e-04  -8.4852390e-05  -1.1046424e-04  -2.2253450e-04  -1.2662520e-05   0.0000000e+00  -1.5606537e-04  -2.8571161e-04  -1.6824519e-04  -1.5098808e-04  -1.0253178e-04  -1.9892183e-04  -1.9467048e-04  -7.5497522e-05  -3.7716762e-04  -1.1770365e-05  -9.8982141e-05  -3.8592650e-05  -7.1089965e-05  -1.2321538e-04  -1.1481033e-04  -1.2078875e-04  -6.5668838e-06  -5.1816704e-05  -5.3753716e-05  -1.0652107e-04  -2.8820429e-05  -3.6887362e-05   3.3117962e-05  -8.5903275e-05  -5.0478386e-05  -4.3504803e-05   1.7440191e-05  -4.4679524e-05   2.4899880e-05   2.8883291e-05  -7.2295418e-05   9.8202680e-05   1.1719931e-04   3.8079798e-05  -3.4656745e-05  -6.1460800e-05  -5.6260635e-05   0.0000000e+00   1.5566947e-06  -1.6616527e-04  -1.3597320e-04   5.0007819e-05  -2.9095806e-05  -1.1726810e-04   1.5749609e-05   2.8576642e-05  -9.2624410e-05   1.9090827e-05  -5.2371303e-06  -5.6664460e-05  -8.6386615e-05   2.5117190e-05  -4.6620986e-05  -7.9739033e-05   2.3622647e-05   1.0869501e-04   3.2779346e-06  -1.4709155e-05   3.4791959e-06   4.8812912e-05   6.2662094e-05   1.2550534e-04   4.5347842e-05   9.4616050e-05   1.1935429e-04   1.3413944e-04   1.4814074e-04   2.0692799e-04   1.9998133e-04   4.0403004e-05   7.8142796e-05   7.5169823e-05   4.5499868e-05   5.0176881e-05   1.7430471e-04   0.0000000e+00   3.0480108e-05  -1.3589834e-04  -6.1126808e-05   1.4335706e-07  -1.9665395e-05  -9.0412919e-05  -5.6267911e-05   2.1826195e-05  -2.7018417e-04   8.5963414e-05  -6.1026066e-06  -1.1186702e-04  -5.0578008e-05  -5.1731424e-05  -1.7482555e-04  -1.0690673e-04   1.0327931e-04   1.7075826e-04   7.2891049e-05  -2.8649423e-05   1.4107473e-04   3.2207210e-04   3.9883268e-04  -1.0291952e-05   1.9083523e-04   3.9309980e-04   4.1362065e-04   5.2721917e-04   4.4786699e-04   3.1681035e-04   8.0357239e-05   3.3793000e-04   2.8351733e-04   2.9903766e-04   5.2351949e-04   5.3842520e-04   4.0521158e-04   0.0000000e+00   3.1623351e-04   1.2616734e-04   3.0690607e-05   4.7076792e-04   3.3481117e-04   1.8070030e-04   2.7754249e-04   2.6879778e-04   1.7585293e-04   3.6074049e-04   5.3304056e-04   2.5885637e-04   2.1639733e-04   3.7015824e-04  -1.9367233e-04   1.0321764e-04   2.2633757e-04   1.9495313e-04  -9.6316588e-06   3.4478444e-04  -7.2346854e-05  -2.6301639e-04  -3.1703292e-04   1.4198791e-04  -1.7915348e-05   4.6452125e-06  -1.0004488e-04  -3.9624318e-04  -1.2985071e-04  -4.6479514e-05   6.3904702e-05  -1.5363183e-04  -1.5856603e-04  -2.2954406e-04  -3.1719483e-04  -7.2485751e-04  -2.9632867e-04   0.0000000e+00  -1.7295827e-04  -6.2258106e-04  -5.8970831e-05  -2.3373813e-04  -2.0462237e-04  -2.2678401e-04  -3.2445080e-04  -5.0513530e-05  -5.2126381e-04  -8.6956573e-05  -2.8662580e-04  -3.7757947e-04  -1.4603588e-04  -3.8951596e-04  -4.9208078e-04  -5.3474243e-04
   1.1208475e-04   7.8435412e-05   3.1730082e-05   5.9909236e-05   4.7819273e-05   4.0629985e-05   5.3598688e-05   2.2127500e-05   3.0337986e-05   2.9810479e-05  -1.2202572e-05   2.9851513e-05   5.7295422e-05   3.6155257e-06   4.2571904e-06   3.5440346e-06  -5.2772961e-05  -2.7332978e-05   4.6493979e-05   6.8188671e-05   8.7252078e-06   0.0000000e+00   2.7318355e-05   1.2695776e-04   5.2865922e-05   5.3181934e-05   2.2288915e-05   8.4805264e-05   7.2105558e-05   4.5196920e-05   9.6192844e-05  -1.1152624e-05  -5.5049838e-06   9.9815717e-06   4.4722959e-05   7.9954290e-05   7.5662446e-05   9.7475187e-05   2.7653398e-04   1.2024116e-04   2.4446359e-05   2.5143499e-04   2.6163773e-05   5.4823494e-06  -3.4459730e-04  -1.1936766e-04  -4.0870622e-05   1.0505358e-04   1.3989540e-04   1.5517400e-05  -2.5972549e-04  -2.7290776e-04  -1.3634373e-04  -1.3233668e-05  -8.7222789e-06   1.7593818e-05   6.5704542e-05   7.6106639e-06  -4.8037186e-05   0.0000000e+00   3.0540846e-05   2.4177367e-05   7.0164677e-05   2.0450992e-05   6.2776345e-05   9.8266581e-05   8.9782552e-05   2.7468385e-05  -5.8346853e-05  -3.9183606e-05   4.9487600e-06   5.5519286e-05  -2.1098435e-05  -1.0134019e-04   5.6208328e-05  -1.2409551e-05   2.1953729e-04  -7.4902455e-05  -2.2969538e-05   1.6345981e-04  -8.2344639e-05  -2.4089525e-04  -5.7423764e-04  -4.9922281e-04  -3.6689404e-04  -2.3657402e-04  -2.4701002e-04  -4.5507826e-04  -3.0000369e-04  -3.3782614e-04  -4.6220738e-04  -3.3158323e-04  -5.1752117e-04  -3.6892750e-04  -4.3251927e-04  -5.9614984e-04  -5.1853496e-04   0.0000000e+00  -2.1237228e-04  -1.2166487e-04   7.5964944e-05  -3.0776577e-04  -1.0816825e-04   5.4829717e-05   1.2691002e-05  -1.3680680e-05   4.2227039e-05  -3.6054038e-04  -2.6785655e-04   1.8567134e-05   1.1077572e-04   9.5789709e-05  -6.0123481e-05  -2.0309930e-04  -1.8463023e-04  -7.5513401e-05   1.3835187e-05  -3.9476417e-05   5.2615184e-06  -1.0032020e-05   4.8177978e-05   2.6997755e-05   1.8458208e-06  -4.1782928e-06  -2.6058591e-05  -4.1657170e-05   9.5652079e-06  -1.0178520e-05   4.5790969e-05  -2.6692901e-05  -4.8821794e-05  -3.3706486e-05  -3.8642972e-05  -7.8655945e-06  -2.2701551e-05   0.0000000e+00  -1.4007774e-05  -1.5224512e-05   2.6186654e-05  -2.1818331e-05  -1.3561889e-05   2.3408913e-05  -3.8086279e-05  -3.0243144e-05   3.6621762e-05  -1.1465668e-05  -5.0790993e-05  -3.7648469e-05  -6.1988964e-06  -7.2738701e-05   3.4448572e-05   1.4959229e-05   5.5989098e-05   2.1360953e-05  -9.9346987e-06   2.3784474e-06   1.1074519e-05   5.3149171e-05   1.1525784e-05  -5.6186209e-05  -3.1225552e-05   5.4248629e-05   1.0364334e-04   1.1943675e-04   3.7734910e-05   4.9552089e-05  -2.4743376e-05  -1.1782064e-05  -2.3096174e-05   4.2227719e-05   7.3706969e-05   3.7943233e-05   3.2478526e-05   0.0000000e+00   1.2612204e-05  -8.4268358e-05  -2.3372478e-05   3.8264178e-05   5.3468998e-05   1.5332474e-05  -3.6564897e-06   1.6403714e-05  -1.6592459e-04   5.2945498e-05   6.3980873e-05  -1.2601675e-05  -6.2462733e-06  -2.9579352e-05  -1.9609086e-04  -8.4066234e-05   6.2343330e-07   2.8933129e-06   3.3954657e-06   1.1117075e-05   8.4159442e-08   5.4141099e-06   6.1707058e-05   1.1369630e-04  -5.0080705e-06  -5.4377287e-06  -1.1665928e-05   1.8747868e-05  -1.7610224e-05   1.4595341e-05   9.5718875e-05  -3.2639358e-05  -4.6117820e-05  -2.3600056e-05  -8.8762131e-06   1.9375648e-05   2.1085735e-05   0.0000000e+00   1.3295323e-07  -2.2741218e-05  -2.1583016e-05  -3.1057823e-05  -4.4330794e-05  -4.3133374e-05  -5.8909801e-05  -1.6998944e-05  -3.7367237e-05   9.5774325e-06   4.1977697e-06  -1.9964020e-05  -3.5516021e-05  -7.5711083e-05   2.8850950e-05   3.2497136e-05  -9.2063233e-05  -9.6359659e-05  -3.5702937e-05  -1.0285682e-04  -4.7369487e-05  -3.2652557e-05  -2.8961244e-05  -4.1070097e-05  -5.2694761e-05   2.3054766e-05   1.7522512e-05  -1.5333322e-05   4.9444366e-07  -3.0973995e-05   3.2551419e-05   1.4745953e-05   6.9731969e-06  -1.0869588e-05  -1.0162983e-04  -1.5236358e-04   1.7616202e-05   0.0000000e+00  -2.2219021e-05  -1.5664113e-04  -1.8874360e-04  -9.0301687e-06   5.5752322e-06  -1.1639599e-04  -1.2040732e-04   8.3999329e-07  -9.7695580e-05  -5.8308432e-06  -1.0723293e-05  -9.3077850e-06  -5.2089786e-05   5.0917307e-07  -7.1943425e-05  -5.4544069e-05  -1.4204561e-04  -1.3182642e-04  -1.1652213e-04  -7.0280868e-05  -1.6217035e-04  -1.3850600e-04  -5.0207914e-04  -4.5239593e-04  -2.5952692e-04  -1.8975730e-04  -8.4712257e-05  -9.8160492e-05  -1.3564786e-04  -1.6262822e-04  -1.5979511e-04  -1.7044947e-04  -1.5643971e-04  -8.3884646e-05  -1.2438975e-04  -2.4096615e-04  -8.6059594e-06   0.0000000e+00  -1.6444523e-04  -3.1152940e-04  -1.9762154e-04  -1.6578860e-04  -1.1705701e-04  -2.2130623e-04  -1.9447990e-04  -7.7054789e-05  -3.8546960e-04  -1.1520554e-05  -9.9230292e-05  -4.1661045e-05  -7.8013102e-05  -1.1583457e-04  -1.3382420e-04  -1.2952292e-04  -2.2716215e-05  -6.8673868e-05  -6.8336170e-05  -1.3215307e-04  -4.0915953e-05  -4.6883517e-05   1.6423119e-05  -9.1430369e-05  -7.8396428e-05  -5.5969473e-05   2.4018463e-05  -4.1755134e-05   1.6408834e-05   3.0393998e-05  -7.0044240e-05   1.0360334e-04   1.3446148e-04   4.0964207e-05  -3.9608346e-05  -7.7954756e-05  -5.7289448e-05   0.0000000e+00  -1.1277990e-05  -2.0003399e-04  -1.6840430e-04   4.3251474e-05  -3.9185220e-05  -1.4939406e-04   3.4164284e-06   2.1995167e-05  -1.1709748e-04   1.7699510e-05  -3.5910400e-06  -6.4199341e-05  -1.0075471e-04   2.2397509e-05  -6.3535358e-05  -9.9576104e-05   2.7421141e-05   1.0897943e-04   1.8968531e-07  -2.1172622e-05   1.4181024e-06   4.7504589e-05   5.4671252e-05   1.3066991e-04   3.7190183e-05   9.2171078e-05   1.2033048e-04   1.3631417e-04   1.5960031e-04   2.2222150e-04   2.0559722e-04   4.2260563e-05   8.1239179e-05   8.2447845e-05   5.0853269e-05   4.6548637e-05   1.7191780e-04   0.0000000e+00   2.2928293e-05  -1.4919775e-04  -6.4998967e-05  -1.8400423e-05  -3.6927255e-05  -1.0425948e-04  -6.9081313e-05   1.1448583e-05  -2.7886042e-04   7.7163410e-05  -1.4552615e-05  -1.1546405e-04  -6.3627291e-05  -6.0871821e-05  -1.8471521e-04  -1.2182458e-04   1.0241437e-04   1.7514051e-04   7.5998167e-05  -4.1924611e-05   1.4978399e-04   3.6292693e-04   4.3558663e-04  -1.8759915e-05   1.9552240e-04   4.1454208e-04   4.5668369e-04   5.8954840e-04   4.8915011e-04   3.3204493e-04   8.8249747e-05   3.6735839e-04   3.2384156e-04   3.4489210e-04   5.9179367e-04   6.2268131e-04   4.5795932e-04   0.0000000e+00   3.3199103e-04   1.3510792e-04   3.5226592e-05   4.9446505e-04   3.5427526e-04   1.8712051e-04   2.8332995e-04   2.6944832e-04   2.0502999e-04   3.9429254e-04   5.6227483e-04   2.8466276e-04   2.2207336e-04   3.9186691e-04  -1.9491065e-04   1.1871047e-04   2.2613198e-04   1.8620657e-04  -1.0622948e-05   3.5401128e-04  -8.0583173e-05  -2.8220160e-04  -3.3120246e-04   1.7635003e-04  -1.7673919e-05   1.1658462e-05  -8.8667267e-05  -4.0493353e-04  -1.4013963e-04  -5.7849758e-05   6.8283687e-05  -1.5480593e-04  -1.7641633e-04  -2.4089915e-04  -3.3619341e-04  -7.8132306e-04  -3.1505262e-04   0.0000000e+00  -1.6637881e-04  -6.4601376e-04  -7.0147241e-05  -2.3073108e-04  -2.0543084e-04  -2.3890048e-04  -3.2917876e-04  -5.2623739e-05  -5.4472144e-04  -8.5681614e-05  -2.9488043e-04  -3.7368187e-04  -1.4500650e-04  -3.7961278e-04  -5.0118655e-04  -5.4781063e-04
   1.1373257e-04   7.8636651e-05   3.0351490e-05   5.7532803e-05   4.6463566e-05   3.9265425e-05   5.6982953e-05   1.5792643e-05   2.8541236e-05   2.8253965e-05  -1.6198287e-05   2.8129196e-05   6.4093745e-05   4.8274935e-06   2.2744416e-06   2.7927506e-07  -6.0119832e-05  -3.1593675e-05   4.4564025e-05   6.5614615e-05   6.9921190e-06   0.0000000e+00   2.6326714e-05   1.2316500e-04   5.0470998e-05   5.4029796e-05   2.1677909e-05   8.5270150e-05   7.3950747e-05   4.7314675e-05   9.4522276e-05  -1.2892302e-05  -7.1562303e-06   8.1396015e-06   4.5148406e-05   8.4041256e-05   7.8704493e-05   1.0358268e-04   3.5445934e-04   1.5316750e-04   2.3167404e-05   3.0310312e-04   2.0395972e-05  -6.9229251e-06  -4.1101622e-04  -1.5453845e-04  -5.1421812e-05   1.0119592e-04   1.3749057e-04  -4.0297508e-06  -3.0139182e-04  -3.0954919e-04  -1.6298879e-04  -2.6424624e-05  -2.2449913e-05   9.4129302e-06   5.2278940e-05  -2.4051151e-05  -6.3882654e-05   0.0000000e+00   2.2977548e-05   1.0931578e-05   7.8641904e-05   1.7679163e-05   6.0395992e-05   1.0296411e-04   8.2374822e-05   1.9802980e-05  -9.1997199e-05  -4.0654589e-05  -2.3676593e-06   5.3845493e-05  -3.1182002e-05  -1.3458940e-04   5.7127872e-05  -2.5610935e-05   3.7296433e-04  -4.1256160e-05  -2.0549932e-05   2.8548926e-04  -8.7871427e-05  -2.6429805e-04  -5.9858800e-04  -5.1283467e-04  -3.9810621e-04  -2.3938974e-04  -2.5358451e-04  -5.1569257e-04  -3.7256210e-04  -3.6114110e-04  -5.2754377e-04  -3.5799386e-04  -5.5982600e-04  -4.0501338e-04  -4.6949097e-04  -6.6723594e-04  -5.4765276e-04   0.0000000e+00  -2.3463307e-04  -1.9080739e-04   7.9662876e-05  -3.1497025e-04  -1.0991008e-04   5.2041323e-05   1.3273166e-05   1.7847907e-05   1.6626494e-05  -3.6244843e-04  -2.8521382e-04  -8.5867038e-06   1.0383420e-04   9.1028730e-05  -1.1084666e-04  -2.5615075e-04  -1.8923204e-04  -8.0629261e-05   1.2477027e-05  -4.2783813e-05   2.5175289e-06  -1.3653159e-05   4.5644349e-05   3.4837852e-05  -7.0914410e-07  -9.8135455e-06  -3.1271961e-05  -4.9814137e-05   5.6506509e-06  -8.0707459e-06   4.7625290e-05  -3.1620972e-05  -5.6100766e-05  -3.8289906e-05  -4.4775024e-05  -1.4567443e-05  -3.0322947e-05   0.0000000e+00  -2.0030722e-05  -2.1675588e-05   2.4038131e-05  -2.8263996e-05  -2.0618738e-05   1.7340938e-05  -4.1706120e-05  -3.3103584e-05   3.1381023e-05  -1.5608714e-05  -5.6718622e-05  -4.2699688e-05  -9.2837817e-06  -7.8207471e-05   3.1807352e-05   9.9076902e-06   4.9235759e-05   1.6901677e-05  -1.4298628e-05  -6.1529185e-06   5.9267730e-06   5.1076128e-05   3.1237733e-06  -6.3926321e-05  -4.4947128e-05   5.1030414e-05   1.0521420e-04   1.2070216e-04   3.2619118e-05   4.7620773e-05  -3.4188581e-05  -2.1480619e-05  -2.7348536e-05   4.3658754e-05   7.1657368e-05   3.3536013e-05   2.5070907e-05   0.0000000e+00   4.4073597e-06  -9.2266135e-05  -3.0574304e-05   2.8228549e-05   5.1580698e-05   8.6797794e-06  -1.0544729e-05   1.3066264e-05  -1.8452026e-04   4.8351225e-05   6.8004268e-05  -1.2879380e-05  -1.2761901e-05  -3.7414312e-05  -2.1731263e-04  -9.4529842e-05  -4.6477767e-06  -2.1160557e-06   2.5297511e-06   1.3058724e-05  -3.3554084e-06  -1.6093033e-07   5.6083088e-05   1.1246432e-04  -7.1281903e-06  -1.0203294e-05  -2.0177650e-05   1.1717815e-05  -2.4418918e-05   1.4485394e-05   8.8913770e-05  -3.4627390e-05  -5.1522840e-05  -3.0117130e-05  -1.6740147e-05   1.0411681e-05   1.3728825e-05   0.0000000e+00  -6.4212559e-06  -2.9281065e-05  -1.7940949e-05  -4.1633959e-05  -5.4824133e-05  -4.6905277e-05  -7.2948907e-05  -2.7113058e-05  -4.4325195e-05   3.3698483e-06  -4.3302399e-06  -2.3581838e-05  -4.1695157e-05  -9.1841039e-05   3.1294744e-05   2.5174179e-05  -1.1221473e-04  -1.1254920e-04  -4.1424530e-05  -1.1835472e-04  -5.2457008e-05  -2.9503043e-05  -3.7045443e-05  -3.5289634e-05  -5.8758198e-05   2.1062359e-05   2.8529497e-05  -2.6647047e-06  -7.7751354e-06  -3.5895482e-05   4.0434078e-05   1.3617200e-05   1.4996487e-05  -2.9774901e-06  -9.4114324e-05  -1.4877345e-04   2.8871450e-05   0.0000000e+00  -2.0762266e-05  -1.6786354e-04  -2.0418069e-04  -1.1611515e-07   1.4944776e-05  -1.2603600e-04  -1.2826452e-04  -2.9541908e-06  -1.0141613e-04   2.3895601e-06   1.6420382e-06  -3.0534009e-06  -5.3800045e-05  -8.5743412e-07  -8.2198139e-05  -6.5379277e-05  -1.6506070e-04  -1.5070829e-04  -1.2474897e-04  -9.1769710e-05  -1.7535463e-04  -1.5175279e-04  -5.1159334e-04  -4.4997718e-04  -2.7352176e-04  -2.0112339e-04  -8.5820723e-05  -1.0867456e-04  -1.3903936e-04  -1.6062125e-04  -1.4951261e-04  -1.7761662e-04  -1.6173541e-04  -8.1997999e-05  -1.3759527e-04  -2.5637973e-04  -3.1543718e-06   0.0000000e+00  -1.7076705e-04  -3.3639106e-04  -2.2809663e-04  -1.7868321e-04  -1.3092584e-04  -2.4272496e-04  -1.9156368e-04  -7.7470324e-05  -3.8856037e-04  -1.0914328e-05  -9.7092371e-05  -4.4248088e-05  -8.4356740e-05  -1.0520429e-04  -1.5241401e-04  -1.3682687e-04  -4.0939957e-05  -8.5600182e-05  -8.2401541e-05  -1.5683263e-04  -5.3841560e-05  -5.7777230e-05  -2.1751370e-06  -9.4885787e-05  -1.0650645e-04  -6.8045706e-05   3.0112709e-05  -3.8805818e-05   7.1416662e-06   3.1565442e-05  -6.5183235e-05   1.0886149e-04   1.5240587e-04   4.2838748e-05  -4.5817901e-05  -9.6646276e-05  -5.8447076e-05   0.0000000e+00  -2.5412146e-05  -2.3091782e-04  -1.9915940e-04   3.3580884e-05  -5.0246489e-05  -1.8029234e-04  -9.9264874e-06   1.4429561e-05  -1.4102914e-04   1.4109798e-05  -5.0289020e-06  -7.1053275e-05  -1.1411804e-04   1.9055933e-05  -8.1630399e-05  -1.1986723e-04   2.8328420e-05   1.0482540e-04  -3.9340219e-06  -3.0743505e-05  -1.4620027e-06   4.4599278e-05   4.1579378e-05   1.3076467e-04   2.6755970e-05   8.6727022e-05   1.1941649e-04   1.3585655e-04   1.6926136e-04   2.3351456e-04   2.0590921e-04   4.3943631e-05   8.4616841e-05   8.9980158e-05   5.5605312e-05   4.0978717e-05   1.6599625e-04   0.0000000e+00   1.4079787e-05  -1.6207617e-04  -6.9498668e-05  -3.7662959e-05  -5.4218044e-05  -1.1757257e-04  -8.0134115e-05   1.7493238e-07  -2.8189694e-04   6.6191349e-05  -2.2439197e-05  -1.1585174e-04  -7.5966446e-05  -6.7347416e-05  -1.9067150e-04  -1.3459845e-04   9.8439513e-05   1.7516851e-04   7.7135057e-05  -5.8240422e-05   1.5632649e-04   3.9950093e-04   4.6704030e-04  -2.5289920e-05   1.9604681e-04   4.2785930e-04   4.9364420e-04   6.4582595e-04   5.2597548e-04   3.4470503e-04   9.4863112e-05   3.9185920e-04   3.6209591e-04   3.8890895e-04   6.5434986e-04   7.0378708e-04   5.0688436e-04   0.0000000e+00   3.4095615e-04   1.3956634e-04   3.7448022e-05   5.0780394e-04   3.6671805e-04   1.8832325e-04   2.8251245e-04   2.6302963e-04   2.3098066e-04   4.2111012e-04   5.8010346e-04   3.0448923e-04   2.2214763e-04   4.0515304e-04  -1.9533499e-04   1.3045334e-04   2.1855912e-04   1.7076203e-04  -1.2886924e-05   3.5273421e-04  -8.9389587e-05  -2.9857784e-04  -3.4340957e-04   2.0806655e-04  -1.9938214e-05   1.5474676e-05  -7.7414278e-05  -4.0774099e-04  -1.4978972e-04  -7.1014559e-05   7.1958355e-05  -1.5627357e-04  -1.9427668e-04  -2.5041407e-04  -3.5252616e-04  -8.2917464e-04  -3.2935337e-04   0.0000000e+00  -1.5726752e-04  -6.6184778e-04  -8.3048145e-05  -2.2332628e-04  -2.0245226e-04  -2.5002803e-04  -3.2793041e-04  -5.3534766e-05  -5.6114919e-04  -8.2892319e-05  -2.9767856e-04  -3.6229638e-04  -1.4099699e-04  -3.6069558e-04  -5.0049270e-04  -5.5024432e-04
   1.1315400e-04   7.6761699e-05   2.7913857e-05   5.3444357e-05   4.3844858e-05   3.6811093e-05   5.8592006e-05   7.6685923e-06   2.4825896e-05   2.5697618e-05  -2.0014963e-05   2.5559778e-05   6.9961501e-05   5.7194780e-06  -4.0757525e-07  -3.7362089e-06  -6.7271489e-05  -3.5595379e-05   4.1315484e-05   6.0933878e-05   4.8639600e-06   0.0000000e+00   2.4575590e-05   1.1536943e-04   4.6365464e-05   5.3698849e-05   2.0409380e-05   8.3576556e-05   7.3018467e-05   4.8209596e-05   8.9916007e-05  -1.4545654e-05  -9.0715703e-06   5.7114430e-06   4.4240644e-05   8.5787600e-05   8.0427135e-05   1.0792178e-04   4.3276680e-04   1.8764679e-04   2.1519295e-05   3.5388869e-04   1.3865589e-05  -2.0188125e-05  -4.7259652e-04  -1.9112075e-04  -5.9775078e-05   9.6972861e-05   1.3362438e-04  -2.4342696e-05  -3.4025643e-04  -3.4152468e-04  -1.9074778e-04  -3.9028498e-05  -3.4443656e-05   1.4484563e-06   3.5798982e-05  -5.9434866e-05  -7.9385036e-05   0.0000000e+00   1.5201813e-05  -4.8380111e-06   8.8501002e-05   1.5562356e-05   5.8713233e-05   1.0826198e-04   7.3741733e-05   1.1414775e-05  -1.2726710e-04  -4.0276565e-05  -9.9605186e-06   5.0867171e-05  -4.1366045e-05  -1.7095952e-04   5.7057610e-05  -3.9179699e-05   5.4558279e-04   1.2007476e-06  -1.7529399e-05   4.2114201e-04  -9.3765826e-05  -2.8640043e-04  -6.2993736e-04  -5.3500666e-04  -4.2146107e-04  -2.3672177e-04  -2.5498083e-04  -5.7214958e-04  -4.4723286e-04  -3.8008536e-04  -5.9440743e-04  -3.7456833e-04  -5.9179988e-04  -4.3417524e-04  -4.9959609e-04  -7.3392015e-04  -5.6779878e-04   0.0000000e+00  -2.5512714e-04  -2.6562403e-04   8.0063010e-05  -3.1637888e-04  -1.0791178e-04   4.9174886e-05   1.4414996e-05   4.8458152e-05  -2.4769863e-05  -3.5538676e-04  -2.9678800e-04  -3.3812944e-05   9.8489035e-05   8.2224821e-05  -1.6080184e-04  -3.0532016e-04  -1.9129685e-04  -8.5337461e-05   1.0166404e-05  -4.7075239e-05  -1.3009393e-06  -1.7884176e-05   4.1656234e-05   4.1386811e-05  -4.0350658e-06  -1.6328986e-05  -3.5930235e-05  -5.7620278e-05   1.0515664e-06  -6.4221629e-06   4.7759558e-05  -3.6505507e-05  -6.2137239e-05  -4.1824042e-05  -5.0677590e-05  -2.2228285e-05  -3.7483333e-05   0.0000000e+00  -2.5997059e-05  -2.9372264e-05   1.9959352e-05  -3.4491749e-05  -2.7065269e-05   9.9084296e-06  -4.4036803e-05  -3.5724128e-05   2.4912988e-05  -1.9535029e-05  -6.1089717e-05  -4.6913149e-05  -1.2577738e-05  -8.2191335e-05   2.7511788e-05   3.8676607e-06   4.0609223e-05   1.1729621e-05  -1.8531124e-05  -1.4938601e-05   1.6624021e-07   4.6821030e-05  -4.9173240e-06  -7.2580220e-05  -5.8485201e-05   4.6002380e-05   1.0420397e-04   1.1863816e-04   2.7490742e-05   4.4329902e-05  -4.5097191e-05  -3.1630316e-05  -3.1363726e-05   4.4066020e-05   6.7209238e-05   2.6993123e-05   1.6402749e-05   0.0000000e+00  -4.7136942e-06  -9.8775048e-05  -3.7103153e-05   1.6439129e-05   4.8160328e-05   1.5766615e-06  -1.7185404e-05   9.3401571e-06  -2.0155301e-04   4.2622230e-05   6.9708089e-05  -1.3309124e-05  -1.9743198e-05  -4.5639675e-05  -2.3698456e-04  -1.0417756e-04  -1.0526632e-05  -7.9390413e-06   1.1219249e-06   1.3665514e-05  -7.2927129e-06  -6.4010227e-06   4.9048910e-05   1.0829546e-04  -9.9490273e-06  -1.5175886e-05  -2.8070077e-05   4.0626526e-06  -3.1158596e-05   1.4441819e-05   7.9324951e-05  -3.5717059e-05  -5.5226379e-05  -3.5571639e-05  -2.4806549e-05   2.7095818e-07   6.2797023e-06   0.0000000e+00  -1.3102229e-05  -3.6497682e-05  -1.4545785e-05  -5.1498053e-05  -6.4723616e-05  -5.0338090e-05  -8.5685843e-05  -3.6794200e-05  -5.0653192e-05  -2.6547185e-06  -1.2699906e-05  -2.6775907e-05  -4.7174302e-05  -1.0618297e-04   3.3510148e-05   1.7362528e-05  -1.3292368e-04  -1.2820214e-04  -4.7468226e-05  -1.3331254e-04  -5.7870853e-05  -2.6903448e-05  -4.6696294e-05  -2.9158976e-05  -6.4973536e-05   1.6450398e-05   3.8192616e-05   9.4886933e-06  -1.7610225e-05  -4.1172895e-05   4.8356245e-05   1.1480501e-05   2.3398157e-05   4.8073559e-06  -8.5664748e-05  -1.4364209e-04   3.9280816e-05   0.0000000e+00  -1.9945820e-05  -1.7819224e-04  -2.1893141e-04   7.3134152e-06   2.3097028e-05  -1.3614543e-04  -1.3562814e-04  -7.9182597e-06  -1.0706434e-04   1.0271763e-05   1.2818336e-05   2.0874999e-06  -5.5732929e-05  -3.8436404e-06  -9.3456335e-05  -7.7093241e-05  -1.8798952e-04  -1.7009322e-04  -1.3163749e-04  -1.1466193e-04  -1.8708256e-04  -1.6333776e-04  -5.1326278e-04  -4.3926524e-04  -2.8366493e-04  -2.1047572e-04  -8.6272719e-05  -1.1725476e-04  -1.4084546e-04  -1.5693832e-04  -1.3556704e-04  -1.8311434e-04  -1.6626506e-04  -7.9519017e-05  -1.4994899e-04  -2.6872286e-04   3.2882886e-06   0.0000000e+00  -1.7532307e-04  -3.6026020e-04  -2.5899253e-04  -1.8978591e-04  -1.4398796e-04  -2.6296017e-04  -1.8695404e-04  -7.7198567e-05  -3.8743455e-04  -1.0238366e-05  -9.3272526e-05  -4.6481785e-05  -9.0179655e-05  -9.2480303e-05  -1.7020175e-04  -1.4290225e-04  -6.0620027e-05  -1.0185841e-04  -9.5243757e-05  -1.7933036e-04  -6.7142849e-05  -6.9360328e-05  -2.1885301e-05  -9.6158472e-05  -1.3339020e-04  -7.9220236e-05   3.5175177e-05  -3.6314956e-05  -2.4410273e-06   3.2300205e-05  -5.7788730e-05   1.1414367e-04   1.7080959e-04   4.3471839e-05  -5.3405717e-05  -1.1726177e-04  -5.9983739e-05   0.0000000e+00  -4.0276317e-05  -2.5728118e-04  -2.2680822e-04   2.1175489e-05  -6.2079106e-05  -2.0862949e-04  -2.3675016e-05   6.1531991e-06  -1.6362473e-04   8.1487232e-06  -1.0229933e-05  -7.7028346e-05  -1.2596255e-04   1.5210821e-05  -1.0070491e-04  -1.4025409e-04   2.5892938e-05   9.6355861e-05  -8.9521943e-06  -4.3398006e-05  -5.0503898e-06   4.0336543e-05   2.4053889e-05   1.2567915e-04   1.4668584e-05   7.8719356e-05   1.1704095e-04   1.3309583e-04   1.7706134e-04   2.4056612e-04   2.0118696e-04   4.5556029e-05   8.8689034e-05   9.7834114e-05   5.9706724e-05   3.3856193e-05   1.5717319e-04   0.0000000e+00   4.4536575e-06  -1.7424732e-04  -7.4684834e-05  -5.6693974e-05  -7.0584615e-05  -1.2988443e-04  -8.8873402e-05  -1.1419278e-05  -2.7941885e-04   5.3655767e-05  -2.9334999e-05  -1.1307684e-04  -8.7058911e-05  -7.0811342e-05  -1.9259183e-04  -1.4471289e-04   9.1059742e-05   1.7063207e-04   7.5993270e-05  -7.7780341e-05   1.6025821e-04   4.3009817e-04   4.9169299e-04  -3.0255986e-05   1.9204491e-04   4.3226762e-04   5.2298770e-04   6.9367524e-04   5.5752024e-04   3.5495313e-04   9.9105767e-05   4.1063511e-04   3.9712656e-04   4.2949410e-04   7.0876465e-04   7.7853946e-04   5.5007366e-04   0.0000000e+00   3.4270740e-04   1.3889002e-04   3.6834324e-05   5.1016796e-04   3.7147417e-04   1.8403830e-04   2.7545786e-04   2.5016408e-04   2.5262586e-04   4.4005852e-04   5.8597925e-04   3.1729020e-04   2.1666660e-04   4.0964650e-04  -1.9590354e-04   1.3743989e-04   2.0410042e-04   1.4963968e-04  -1.6564913e-05   3.4124663e-04  -9.8777366e-05  -3.1210431e-04  -3.5389490e-04   2.3610672e-04  -2.4959656e-05   1.5437487e-05  -6.7389207e-05  -4.0533953e-04  -1.5848994e-04  -8.5175349e-05   7.5230968e-05  -1.5881301e-04  -2.1193753e-04  -2.5856157e-04  -3.6664582e-04  -8.6843748e-04  -3.3920712e-04   0.0000000e+00  -1.4666432e-04  -6.7116259e-04  -9.7625666e-05  -2.1233755e-04  -1.9633428e-04  -2.6068595e-04  -3.2174675e-04  -5.3299874e-05  -5.7143304e-04  -7.8932243e-05  -2.9545352e-04  -3.4486861e-04  -1.3473056e-04  -3.3450964e-04  -4.9099818e-04  -5.4298201e-04
   1.1028866e-04   7.2757633e-05   2.4445408e-05   4.7699161e-05   4.0015768e-05   3.3313574e-05   5.8258628e-05  -1.8471479e-06   1.9089175e-05   2.2149800e-05  -2.3500738e-05   2.2226818e-05   7.4662569e-05   6.2877949e-06  -3.6010107e-06  -8.4883906e-06  -7.4116387e-05  -3.9221059e-05   3.6808681e-05   5.4194691e-05   2.4556844e-06   0.0000000e+00   2.2107843e-05   1.0372611e-04   4.0561645e-05   5.2176008e-05   1.8441529e-05   7.9657483e-05   6.9188645e-05   4.7813082e-05   8.2544319e-05  -1.6074283e-05  -1.1261330e-05   2.7383357e-06   4.1979869e-05   8.5103670e-05   8.0797160e-05   1.1039489e-04   5.0832131e-04   2.2267227e-04   1.9675801e-05   4.0191635e-04   7.0241648e-06  -3.3516373e-05  -5.2666050e-04  -2.2763626e-04  -6.5045615e-05   9.3237300e-05   1.2905500e-04  -4.4084008e-05  -3.7481425e-04  -3.6743874e-04  -2.1866240e-04  -5.0178610e-05  -4.3688805e-05  -5.6676180e-06   1.7128742e-05  -9.6885191e-05  -9.3501479e-05   0.0000000e+00   7.9727647e-06  -2.2466136e-05   9.9968401e-05   1.4648288e-05   5.8418341e-05   1.1461542e-04   6.4534481e-05   2.7397523e-06  -1.6291054e-04  -3.7672782e-05  -1.7270754e-05   4.6782507e-05  -5.1109496e-05  -2.0958167e-04   5.6199310e-05  -5.2528724e-05   7.3243666e-04   5.1758576e-05  -1.4092356e-05   5.6605737e-04  -1.0002683e-04  -3.0647314e-04  -6.6794860e-04  -5.6598455e-04  -4.3569433e-04  -2.2866245e-04  -2.5066525e-04  -6.2206649e-04  -5.2096305e-04  -3.9295322e-04  -6.6087743e-04  -3.8053514e-04  -6.1191179e-04  -4.5476415e-04  -5.2156401e-04  -7.9424576e-04  -5.7785905e-04   0.0000000e+00  -2.7305475e-04  -3.4372416e-04   7.7139480e-05  -3.1181970e-04  -1.0195592e-04   4.6588720e-05   1.5497135e-05   7.6010122e-05  -8.2204642e-05  -3.3917250e-04  -3.0182637e-04  -5.5760972e-05   9.5273375e-05   6.9426237e-05  -2.0799131e-04  -3.4888469e-04  -1.9109697e-04  -8.9602017e-05   6.9964572e-06  -5.2318958e-05  -6.0850365e-06  -2.2590971e-05   3.6453164e-05   4.6302095e-05  -7.9928228e-06  -2.3446588e-05  -3.9756532e-05  -6.4724793e-05  -4.0474691e-06  -5.4418185e-06   4.6210168e-05  -4.1163790e-05  -6.6599697e-05  -4.4108965e-05  -5.6168315e-05  -3.0580185e-05  -4.3808808e-05   0.0000000e+00  -3.1610079e-05  -3.8127203e-05   1.4043383e-05  -4.0187610e-05  -3.2478217e-05   1.4194041e-06  -4.4942392e-05  -3.8081717e-05   1.7417681e-05  -2.3013309e-05  -6.3689308e-05  -5.0101186e-05  -1.5957365e-05  -8.4642586e-05   2.1624627e-05  -2.9460559e-06   3.0475183e-05   6.1099228e-06  -2.2411804e-05  -2.3634476e-05  -5.9209099e-06   4.0554616e-05  -1.2076523e-05  -8.1835307e-05  -7.1147476e-05   3.9535632e-05   1.0090345e-04   1.1345279e-04   2.2754585e-05   3.9904265e-05  -5.7034254e-05  -4.1602051e-05  -3.4777267e-05   4.3617365e-05   6.0567015e-05   1.8574575e-05   6.9446485e-06   0.0000000e+00  -1.4272247e-05  -1.0352199e-04  -4.2613026e-05   3.4911526e-06   4.3530421e-05  -5.5298823e-06  -2.3251928e-05   5.4551433e-06  -2.1625533e-04   3.6215714e-05   6.9035676e-05  -1.3814606e-05  -2.6791301e-05  -5.3929231e-05  -2.5463469e-04  -1.1268822e-04  -1.6778030e-05  -1.4330534e-05  -7.8324148e-07   1.2820915e-05  -1.1560969e-05  -1.3001258e-05   4.1143483e-05   1.0163414e-04  -1.3386521e-05  -2.0055167e-05  -3.4811983e-05  -3.7660420e-06  -3.7520901e-05   1.4565377e-05   6.7630779e-05  -3.5802916e-05  -5.6924771e-05  -3.9581558e-05  -3.2698447e-05  -1.0538969e-05  -7.5005607e-07   0.0000000e+00  -1.9540453e-05  -4.4174298e-05  -1.1655323e-05  -6.0137323e-05  -7.3536765e-05  -5.3317018e-05  -9.6557421e-05  -4.5556767e-05  -5.6096686e-05  -8.0725766e-06  -2.0345449e-05  -2.9378531e-05  -5.1717901e-05  -1.1809440e-04   3.5473135e-05   9.5322473e-06  -1.5320420e-04  -1.4252231e-04  -5.3594659e-05  -1.4683631e-04  -6.3433216e-05  -2.5096707e-05  -5.7853399e-05  -2.3217486e-05  -7.1026445e-05   9.3986930e-06   4.5951700e-05   2.0392024e-05  -2.8801450e-05  -4.6663394e-05   5.5872925e-05   8.5626713e-06   3.1952053e-05   1.2053408e-05  -7.6841538e-05  -1.3738020e-04   4.8189075e-05   0.0000000e+00  -1.9932385e-05  -1.8723502e-04  -2.3249752e-04   1.2658081e-05   2.9503432e-05  -1.4650082e-04  -1.4253179e-04  -1.4076303e-05  -1.1496714e-04   1.7358309e-05   2.1924700e-05   5.7265098e-06  -5.7924225e-05  -8.7458647e-06  -1.0566115e-04  -8.9533192e-05  -2.1017685e-04  -1.8964129e-04  -1.3704079e-04  -1.3805036e-04  -1.9713975e-04  -1.7306652e-04  -5.0800807e-04  -4.2149564e-04  -2.8992540e-04  -2.1775031e-04  -8.6289819e-05  -1.2372577e-04  -1.4141417e-04  -1.5224484e-04  -1.1885954e-04  -1.8708393e-04  -1.7026299e-04  -7.6771386e-05  -1.6135240e-04  -2.7806508e-04   1.0200599e-05   0.0000000e+00  -1.7846203e-04  -3.8295134e-04  -2.8948196e-04  -1.9930151e-04  -1.5613760e-04  -2.8177360e-04  -1.8170854e-04  -7.6717186e-05  -3.8316670e-04  -9.8040280e-06  -8.8635133e-05  -4.8516207e-05  -9.5527934e-05  -7.8946414e-05  -1.8683187e-04  -1.4798719e-04  -8.1053824e-05  -1.1674079e-04  -1.0621871e-04  -1.9850523e-04  -8.0338924e-05  -8.1408433e-05  -4.1916936e-05  -9.5286467e-05  -1.5772926e-04  -8.9059539e-05   3.8666679e-05  -3.4762034e-05  -1.1902722e-05   3.2498007e-05  -4.8077813e-05   1.1955683e-04   1.8941783e-04   4.2664602e-05  -6.2423541e-05  -1.3942536e-04  -6.2121639e-05   0.0000000e+00  -5.5287003e-05  -2.7785719e-04  -2.5010397e-04   6.3258935e-06  -7.4470414e-05  -2.3324116e-04  -3.7244619e-05  -2.5558020e-06  -1.8422469e-04  -2.3838997e-07  -1.9681793e-05  -8.1981630e-05  -1.3585671e-04   1.0984048e-05  -1.2059407e-04  -1.6043042e-04   1.9891347e-05   8.3968074e-05  -1.4651001e-05  -5.8862336e-05  -9.1754029e-06   3.5038671e-05   3.1303863e-06   1.1566883e-04   1.6635729e-06   6.8751984e-05   1.1369256e-04   1.2846287e-04   1.8300983e-04   2.4336559e-04   1.9201181e-04   4.7196817e-05   9.3809558e-05   1.0602103e-04   6.3149869e-05   2.5661872e-05   1.4618662e-04   0.0000000e+00  -5.3851601e-06  -1.8536816e-04  -8.0504269e-05  -7.4574099e-05  -8.5123026e-05  -1.4074080e-04  -9.4909539e-05  -2.2761645e-05  -2.7180650e-04   4.0204631e-05  -3.4911764e-05  -1.0735373e-04  -9.6445298e-05  -7.1134800e-05  -1.9061231e-04  -1.5183757e-04   8.0073454e-05   1.6150406e-04   7.2365710e-05  -1.0058511e-04   1.6120796e-04   4.5322122e-04   5.0825185e-04  -3.4352809e-05   1.8330428e-04   4.2737972e-04   5.4349943e-04   7.3091795e-04   5.8320007e-04   3.6298765e-04   9.9837335e-05   4.2320395e-04   4.2795654e-04   4.6515052e-04   7.5290264e-04   8.4380442e-04   5.8571345e-04   0.0000000e+00   3.3714183e-04   1.3272953e-04   3.3053431e-05   5.0139944e-04   3.6818802e-04   1.7428982e-04   2.6288122e-04   2.3183772e-04   2.6922089e-04   4.5033192e-04   5.7990123e-04   3.2240348e-04   2.0597560e-04   4.0547627e-04  -1.9748363e-04   1.3895623e-04   1.8362383e-04   1.2415718e-04  -2.1690077e-05   3.2048402e-04  -1.0870744e-04  -3.2284848e-04  -3.6286602e-04   2.5976888e-04  -3.2783047e-05   1.1155751e-05  -5.9565245e-05  -3.9857981e-04  -1.6593215e-04  -9.9451366e-05   7.8465637e-05  -1.6305815e-04  -2.2917330e-04  -2.6584402e-04  -3.7905445e-04  -8.9952283e-04  -3.4474941e-04   0.0000000e+00  -1.3565854e-04  -6.7523307e-04  -1.1372416e-04  -1.9872415e-04  -1.8786868e-04  -2.7137074e-04  -3.1191583e-04  -5.2046099e-05  -5.7670583e-04  -7.4188116e-05  -2.8890138e-04  -3.2309580e-04  -1.2704595e-04  -3.0309493e-04  -4.7406846e-04  -5.2739798e-04
   1.0513583e-04   6.6646647e-05   2.0016788e-05   4.0403549e-05   3.5068967e-05   2.8854276e-05   5.5923574e-05  -1.2248771e-05   1.1332105e-05   1.7643725e-05  -2.6535820e-05   1.8241213e-05   7.8011627e-05   6.5539937e-06  -7.0608073e-06  -1.3936443e-05  -8.0557907e-05  -4.2373685e-05   3.1146301e-05   4.5524176e-05  -9.3791106e-08   0.0000000e+00   1.8991465e-05   8.8562680e-05   3.3121364e-05   4.9491080e-05   1.5748877e-05   7.3518406e-05   6.2511374e-05   4.6122147e-05   7.2707492e-05  -1.7449615e-05  -1.3722492e-05  -7.1428094e-07   3.8410271e-05   8.2044577e-05   7.9825712e-05   1.1098806e-04   5.7813696e-04   2.5719089e-04   1.7802136e-05   4.4540398e-04   3.2944565e-07  -4.6104804e-05  -5.7099289e-04  -2.6260460e-04  -6.6539706e-05   9.0783065e-05   1.2454397e-04  -6.1953676e-05  -4.0376613e-04  -3.8621819e-04  -2.4572926e-04  -5.9090467e-05  -4.9324828e-05  -1.1361340e-05  -2.7504830e-06  -1.3461058e-04  -1.0524893e-04   0.0000000e+00   2.0035046e-06  -4.1172532e-05   1.1316497e-04   1.5393614e-05   6.0101023e-05   1.2240509e-04   5.5405003e-05  -5.7833445e-06  -1.9768170e-04  -3.2593650e-05  -2.3748498e-05   4.1826332e-05  -5.9899585e-05  -2.4942278e-04   5.4800346e-05  -6.5097297e-05   9.2763698e-04   1.0930993e-04  -1.0447225e-05   7.1518703e-04  -1.0657991e-04  -3.2374990e-04  -7.1110154e-04  -6.0483839e-04  -4.4000193e-04  -2.1553144e-04  -2.4023537e-04  -6.6318933e-04  -5.9059269e-04  -3.9811111e-04  -7.2485045e-04  -3.7573963e-04  -6.1913969e-04  -4.6543140e-04  -5.3441184e-04  -8.4642695e-04  -5.7701213e-04   0.0000000e+00  -2.8765679e-04  -4.2248896e-04   7.1102632e-05  -3.0131200e-04  -9.2060950e-05   4.4567124e-05   1.5771991e-05   9.8578877e-05  -1.5477015e-04  -3.1399183e-04  -2.9990764e-04  -7.3390180e-05   9.4404673e-05   5.2945494e-05  -2.5072674e-04  -3.8554690e-04  -1.8900444e-04  -9.3386544e-05   3.1288035e-06  -5.8378470e-05  -1.1644194e-05  -2.7587704e-05   3.0347196e-05   4.9370343e-05  -1.2380631e-05  -3.0821968e-05  -4.2504714e-05  -7.0792704e-05  -9.4385328e-06  -5.2884248e-06   4.3107948e-05  -4.5405369e-05  -6.9239814e-05  -4.5015638e-05  -6.1066768e-05  -3.9281968e-05  -4.8965848e-05   0.0000000e+00  -3.6580360e-05  -4.7654820e-05   6.5278222e-06  -4.5052471e-05  -3.6487416e-05  -7.7401745e-06  -4.4371874e-05  -4.0169222e-05   9.1588778e-06  -2.5825949e-05  -6.4398237e-05  -5.2125244e-05  -1.9286902e-05  -8.5605199e-05   1.4297705e-05  -1.0275446e-05   1.9307236e-05   3.6208848e-07  -2.5733287e-05  -3.1900503e-05  -1.2014461e-05   3.2583623e-05  -1.7900273e-05  -9.1274700e-05  -8.2272540e-05   3.2104232e-05   9.5747935e-05   1.0553581e-04   1.8761727e-05   3.4638940e-05  -6.9478089e-05  -5.0761172e-05  -3.7243986e-05   4.2543348e-05   5.2059697e-05   8.6900077e-06  -2.7757247e-06   0.0000000e+00  -2.3745840e-05  -1.0625943e-04  -4.6802732e-05  -9.9486573e-06   3.8095821e-05  -1.2173800e-05  -2.8468765e-05   1.6344082e-06  -2.2789817e-04   2.9622476e-05   6.6090183e-05  -1.4286992e-05  -3.3478187e-05  -6.1943991e-05  -2.6985142e-04  -1.1977038e-04  -2.3151345e-05  -2.1009631e-05  -3.0975328e-06   1.0524098e-05  -1.5961488e-05  -1.9626024e-05   3.2948750e-05   9.3089212e-05  -1.7296652e-05  -2.4525550e-05  -3.9932800e-05  -1.1304273e-05  -4.3230909e-05   1.4937449e-05   5.4638316e-05  -3.4831673e-05  -5.6436600e-05  -4.1856221e-05  -4.0048023e-05  -2.1464161e-05  -6.8862407e-06   0.0000000e+00  -2.5382810e-05  -5.2056092e-05  -9.4654534e-06  -6.7116715e-05  -8.0823976e-05  -5.5731943e-05  -1.0514487e-04  -5.2998906e-05  -6.0464518e-05  -1.2505660e-05  -2.6750816e-05  -3.1255449e-05  -5.5155000e-05  -1.2711703e-04   3.7169922e-05   2.1212516e-06  -1.7200178e-04  -1.5472567e-04  -5.9517788e-05  -1.5800343e-04  -6.8912854e-05  -2.4237954e-05  -7.0379067e-05  -1.7992955e-05  -7.6543972e-05   2.8282819e-07   5.1381105e-05   2.9399939e-05  -4.1070706e-05  -5.2198075e-05   6.2521303e-05   5.1764712e-06   4.0445006e-05   1.8376909e-05  -6.8149944e-05  -1.3035140e-04   5.5034714e-05   0.0000000e+00  -2.0806653e-05  -1.9454924e-04  -2.4433297e-04   1.5479860e-05   3.3762165e-05  -1.5678056e-04  -1.4899448e-04  -2.1387093e-05  -1.2524855e-04   2.3255266e-05   2.8231737e-05   7.5945626e-06  -6.0350308e-05  -1.5763870e-05  -1.1869811e-04  -1.0250593e-04  -2.3087825e-04  -2.0889298e-04  -1.4081289e-04  -1.6085417e-04  -2.0529391e-04  -1.8079228e-04  -4.9698674e-04  -3.9819126e-04  -2.9235991e-04  -2.2288308e-04  -8.6072617e-05  -1.2801496e-04  -1.4109562e-04  -1.4719944e-04  -1.0041420e-04  -1.8965319e-04  -1.7393761e-04  -7.4044490e-05  -1.7171980e-04  -2.8455169e-04   1.6986186e-05   0.0000000e+00  -1.8053642e-04  -4.0410166e-04  -3.1861206e-04  -2.0747242e-04  -1.6728938e-04  -2.9889045e-04  -1.7679796e-04  -7.6465357e-05  -3.7680406e-04  -9.9185352e-06  -8.4114833e-05  -5.0508409e-05  -1.0041230e-04  -6.5881049e-05  -2.0197207e-04  -1.5231648e-04  -1.0148883e-04  -1.2961604e-04  -1.1479125e-04  -2.1338656e-04  -9.2956175e-05  -9.3685106e-05  -6.1528916e-05  -9.2462016e-05  -1.7838330e-04  -9.7234148e-05   4.0093783e-05  -3.4597983e-05  -2.0854221e-05   3.2062497e-05  -3.6406640e-05   1.2513135e-04   2.0794347e-04   4.0271119e-05  -7.2858940e-05  -1.6268005e-04  -6.5058795e-05   0.0000000e+00  -6.9875836e-05  -2.9172357e-04  -2.6806492e-04  -1.0584715e-05  -8.7188805e-05  -2.5318483e-04  -5.0095303e-05  -1.1424478e-05  -2.0234237e-04  -1.0976133e-05  -3.3634784e-05  -8.5837007e-05  -1.4347163e-04   6.5040589e-06  -1.4116544e-04  -1.8015835e-04   1.0348652e-05   6.8305420e-05  -2.0757321e-05  -7.6620422e-05  -1.3619008e-05   2.9089771e-05  -1.9889795e-05   1.0133717e-04  -1.1461210e-05   5.7548474e-05   1.0987702e-04   1.2244986e-04   1.8717629e-04   2.4212508e-04   1.7924115e-04   4.8946401e-05   1.0023907e-04   1.1449341e-04   6.5958301e-05   1.6940768e-05   1.3382393e-04   0.0000000e+00  -1.4859277e-05  -1.9505200e-04  -8.6793799e-05  -9.0462699e-05  -9.7033023e-05  -1.4972218e-04  -9.8028215e-05  -3.3316829e-05  -2.5965834e-04   2.6488536e-05  -3.8954495e-05  -9.9050688e-05  -1.0376613e-04  -6.8395455e-05  -1.8509951e-04  -1.5583921e-04   6.5411468e-05   1.4796988e-04   6.6179233e-05  -1.2651762e-04   1.5891850e-04   4.6767866e-04   5.1574399e-04  -3.8508217e-05   1.6980714e-04   4.1323675e-04   5.5434995e-04   7.5571925e-04   6.0271273e-04   3.6903444e-04   9.5989823e-05   4.2946094e-04   4.5385262e-04   4.9456885e-04   7.8504753e-04   8.9673194e-04   6.1218636e-04   0.0000000e+00   3.2448005e-04   1.2107048e-04   2.6014982e-05   4.8183148e-04   3.5686553e-04   1.5939426e-04   2.4579906e-04   2.0932003e-04   2.8039369e-04   4.5150562e-04   5.6240244e-04   3.1957788e-04   1.9070237e-04   3.9324707e-04  -2.0078381e-04   1.3463341e-04   1.5831674e-04   9.5834444e-05  -2.8196030e-05   2.9193864e-04  -1.1908321e-04  -3.3099015e-04  -3.7049907e-04   2.7870583e-04  -4.3257324e-05   2.5105621e-06  -5.4745594e-05  -3.8845139e-04  -1.7181942e-04  -1.1297207e-04   8.2031998e-05  -1.6945565e-04  -2.4576491e-04  -2.7275164e-04  -3.9025675e-04  -9.2317393e-04  -3.4626339e-04   0.0000000e+00  -1.2531766e-04  -6.7542831e-04  -1.3106911e-04  -1.8353176e-04  -1.7796065e-04  -2.8250495e-04  -2.9986644e-04  -4.9968243e-05  -5.7823174e-04  -6.9080360e-05  -2.7894295e-04  -2.9880694e-04  -1.1882563e-04  -2.6863975e-04  -4.5132032e-04  -5.0517724e-04
   9.7757006e-05   5.8530884e-05   1.4736778e-05   3.1709885e-05   2.9131701e-05   2.3543374e-05   5.1637465e-05  -2.2960486e-05   1.6621371e-06   1.2234762e-05  -2.9037799e-05   1.3734107e-05   7.9883505e-05   6.5588765e-06  -1.0503347e-05  -2.0009653e-05  -8.6516333e-05  -4.4980727e-05   2.4468161e-05   3.5123231e-05  -2.6323436e-06   0.0000000e+00   1.5313311e-05   7.0360592e-05   2.4154389e-05   4.5712438e-05   1.2323363e-05   6.5242213e-05   5.3202546e-05   4.3196988e-05   6.0814534e-05  -1.8653424e-05  -1.6438639e-05  -4.5574424e-06   3.3634905e-05   7.6801851e-05   7.7564696e-05   1.0976447e-04   6.3956622e-04   2.9015651e-04   1.6035710e-05   4.8275333e-04  -5.7938529e-06  -5.7212250e-05  -6.0397523e-04  -2.9465950e-04  -6.3819910e-05   9.0267115e-05   1.2078058e-04  -7.6792323e-05  -4.2609789e-04  -3.9717277e-04  -2.7096959e-04  -6.5126750e-05  -5.0704471e-05  -1.5160003e-05  -2.2818407e-05  -1.7081778e-04  -1.1378609e-04   0.0000000e+00  -2.1019044e-06  -6.0120846e-05   1.2807778e-04   1.8113796e-05   6.4197107e-05   1.3189812e-04   4.6970705e-05  -1.3741823e-05  -2.3041662e-04  -2.4956921e-05  -2.8895746e-05   3.6259789e-05  -6.7286693e-05  -2.8934096e-04   5.3135124e-05  -7.6393398e-05   1.1246462e-03   1.7235954e-04  -6.8088754e-06   8.6307488e-04  -1.1327833e-04  -3.3748403e-04  -7.5681318e-04  -6.4958437e-04  -4.3407983e-04  -1.9785383e-04  -2.2346083e-04  -6.9352477e-04  -6.5304776e-04  -3.9414333e-04  -7.8418873e-04  -3.6061778e-04  -6.1302961e-04  -4.6521260e-04  -5.3750074e-04  -8.8890259e-04  -5.6480039e-04   0.0000000e+00  -2.9826534e-04  -4.9918867e-04   6.2381313e-05  -2.8510998e-04  -7.8484108e-05   4.3309904e-05   1.4468693e-05   1.1460858e-04  -2.4040358e-04  -2.8041032e-04  -2.9099328e-04  -8.5995384e-05   9.5775907e-05   3.3407103e-05  -2.8768744e-04  -4.1446458e-04  -1.8547934e-04  -9.6652975e-05  -1.2130489e-06  -6.5024292e-05  -1.7716110e-05  -3.2646999e-05   2.3703465e-05   5.0523677e-05  -1.6942645e-05  -3.8064180e-05  -4.3973969e-05  -7.5523168e-05  -1.4900891e-05  -6.0602940e-06   3.8688287e-05  -4.9042179e-05  -6.9907920e-05  -4.4493738e-05  -6.5198441e-05  -4.7933762e-05  -5.2679450e-05   0.0000000e+00  -4.0641401e-05  -5.7583598e-05  -2.2164768e-06  -4.8816189e-05  -3.8800250e-05  -1.7125072e-05  -4.2358023e-05  -4.1995228e-05   4.5416113e-07  -2.7785887e-05  -6.3196874e-05  -5.2902743e-05  -2.2423270e-05  -8.5203180e-05   5.7687724e-06  -1.7832592e-05   7.6653285e-06  -5.1543040e-06  -2.8310107e-05  -3.9409106e-05  -1.7783936e-05   2.3325114e-05  -2.2035670e-05  -1.0040265e-04  -9.1274936e-05   2.4251428e-05   8.9281125e-05   9.5422561e-05   1.5782326e-05   2.8877123e-05  -8.1862678e-05  -5.8518245e-05  -3.8473037e-05   4.1115798e-05   4.2114994e-05  -2.1326846e-06  -1.2211045e-05   0.0000000e+00  -3.2606780e-05  -1.0677656e-04  -4.9428651e-05  -2.3182101e-05   3.2309299e-05  -1.7905094e-05  -3.2626257e-05  -1.9197934e-06  -2.3584121e-04   2.3317849e-05   6.1123936e-05  -1.4599818e-05  -3.9376979e-05  -6.9356657e-05  -2.8230626e-04  -1.2517957e-04  -2.9404455e-05  -2.7676664e-05  -5.6952726e-06   6.8909550e-06  -2.0277359e-05  -2.5931557e-05   2.5047629e-05   8.3386505e-05  -2.1489404e-05  -2.8276288e-05  -4.3057491e-05  -1.8105438e-05  -4.8066730e-05   1.5611293e-05   4.1223154e-05  -3.2809074e-05  -5.3718287e-05  -4.2214585e-05  -4.6516841e-05  -3.1943091e-05  -1.1723543e-05   0.0000000e+00  -3.0314881e-05  -5.9862513e-05  -8.0987864e-06  -7.2104971e-05  -8.6227151e-05  -5.7485052e-05  -1.1119755e-04  -5.8832210e-05  -6.3635598e-05  -1.5647118e-05  -3.1482680e-05  -3.2314001e-05  -5.7390141e-05  -1.3300254e-04   3.8596763e-05  -4.4904503e-06  -1.8826204e-04  -1.6408698e-04  -6.4927142e-05  -1.6592644e-04  -7.4036006e-05  -2.4387997e-05  -8.4057406e-05  -1.3961453e-05  -8.1121506e-05  -1.0355903e-05   5.4208082e-05   3.5989851e-05  -5.4096057e-05  -5.7595374e-05   6.7850185e-05   1.7098484e-06   4.8687347e-05   2.3466304e-05  -6.0005354e-05  -1.2286217e-04   5.9376389e-05   0.0000000e+00  -2.2568458e-05  -1.9967418e-04  -2.5388894e-04   1.5525816e-05   3.5631422e-05  -1.6658081e-04  -1.5500517e-04  -2.9740520e-05  -1.3781645e-04   2.7657828e-05   3.1216035e-05   7.5573789e-06  -6.2929090e-05  -2.4984569e-05  -1.3240146e-04  -1.1577933e-04  -2.4927566e-04  -2.2726712e-04  -1.4281166e-04  -1.8187995e-04  -2.1129481e-04  -1.8640039e-04  -4.8149765e-04  -3.7104709e-04  -2.9109228e-04  -2.2580120e-04  -8.5783509e-05  -1.3014644e-04  -1.4020692e-04  -1.4240594e-04  -8.1308816e-05  -1.9091940e-04  -1.7745280e-04  -7.1577529e-05  -1.8095620e-04  -2.8836451e-04   2.3032618e-05   0.0000000e+00  -1.8186079e-04  -4.2315200e-04  -3.4534909e-04  -2.1452889e-04  -1.7735998e-04  -3.1399041e-04  -1.7300612e-04  -7.6788027e-05  -3.6926458e-04  -1.0845837e-05  -8.0616096e-05  -5.2590257e-05  -1.0478700e-04  -5.4434525e-05  -2.1532251e-04  -1.5608142e-04  -1.2116686e-04  -1.3995549e-04  -1.2056640e-04  -2.2322822e-04  -1.0454710e-04  -1.0595720e-04  -8.0071251e-05  -8.8019852e-05  -1.9445671e-04  -1.0353759e-04   3.9044324e-05  -3.6216428e-05  -2.8976628e-05   3.0909467e-05  -2.3254801e-05   1.3081136e-04   2.2608139e-04   3.6213177e-05  -8.4630104e-05  -1.8651743e-04  -6.8945405e-05   0.0000000e+00  -8.3522300e-05  -2.9834854e-04  -2.8001461e-04  -2.9101208e-05  -1.0000329e-04  -2.6778725e-04  -6.1757302e-05  -2.0194804e-05  -2.1766494e-04  -2.3861459e-05  -5.2079882e-05  -8.8587993e-05  -1.4859445e-04   1.9135626e-06  -1.6231587e-04  -1.9925501e-04  -2.4643888e-06   5.0208955e-05  -2.6960916e-05  -9.5952132e-05  -1.8129221e-05   2.2900080e-05  -4.3572580e-05   8.3603119e-05  -2.3920563e-05   4.5898654e-05   1.0607598e-04   1.1557096e-04   1.8967024e-04   2.3724703e-04   1.6394682e-04   5.0859949e-05   1.0811246e-04   1.2313425e-04   6.8176769e-05   8.2480617e-06   1.2085805e-04   0.0000000e+00  -2.3415211e-05  -2.0288717e-04  -9.3289394e-05  -1.0364924e-04  -1.0566622e-04  -1.5646522e-04  -9.8199343e-05  -4.2619127e-05  -2.4375117e-04   1.3119565e-05  -4.1373337e-05  -8.8652876e-05  -1.0877516e-04  -6.2859948e-05  -1.7661895e-04  -1.5678395e-04   4.7143939e-05   1.3040129e-04   5.7514186e-05  -1.5526638e-04   1.5327142e-04   4.7266968e-04   5.1361207e-04  -4.3759436e-05   1.5175491e-04   3.9034556e-04   5.5516267e-04   7.6672923e-04   6.1606330e-04   3.7332836e-04   8.6702747e-05   4.2969633e-04   4.7437000e-04   5.1672449e-04   8.0401092e-04   9.3493672e-04   6.2819006e-04   0.0000000e+00   3.0527750e-04   1.0423944e-04   1.5861893e-05   4.5226123e-04   3.3787133e-04   1.3995790e-04   2.2545829e-04   1.8408017e-04   2.8617735e-04   4.4356044e-04   5.3452082e-04   3.0901569e-04   1.7173132e-04   3.7401241e-04  -2.0630077e-04   1.2448129e-04   1.2959637e-04   6.6268641e-05  -3.5904547e-05   2.5753134e-04  -1.2975589e-04  -3.3678566e-04  -3.7693336e-04   2.9290814e-04  -5.6052136e-05  -1.0335404e-05  -5.3522175e-05  -3.7603565e-04  -1.7590435e-04  -1.2497172e-04   8.6272334e-05  -1.7823674e-04  -2.6151207e-04  -2.7972496e-04  -4.0070913e-04  -9.4036793e-04  -3.4415687e-04   0.0000000e+00  -1.1662090e-04  -6.7309929e-04  -1.4928857e-04  -1.6784520e-04  -1.6754916e-04  -2.9440809e-04  -2.8704982e-04  -4.7305176e-05  -5.7730151e-04  -6.4033960e-05  -2.6666491e-04  -2.7382686e-04  -1.1092071e-04  -2.3329776e-04  -4.2450589e-04  -4.7819367e-04
   8.8278127e-05   4.8585562e-05   8.7474283e-06   2.1813231e-05   2.2361338e-05   1.7515555e-05   4.5557940e-05  -3.3377864e-05  -9.7076956e-06   6.0001619e-06  -3.0969273e-05   8.8509281e-06   8.0214938e-05   6.3531527e-06  -1.3632135e-05  -2.6608219e-05  -9.1928860e-05  -4.6996946e-05   1.6944597e-05   2.3258323e-05  -5.0055075e-06   0.0000000e+00   1.1171952e-05   4.9729968e-05   1.3817957e-05   4.0942266e-05   8.1760356e-06   5.4985706e-05   4.1626941e-05   3.9156428e-05   4.7352057e-05  -1.9676880e-05  -1.9379648e-05  -8.6844945e-06   2.7811283e-05   6.9685805e-05   7.4104523e-05   1.0685919e-04   6.9045392e-04   3.2057524e-04   1.4476137e-05   5.1263803e-04  -1.0986728e-05  -6.6216973e-05  -6.2468465e-04  -3.2263255e-04  -5.6748266e-05   9.2161124e-05   1.1832738e-04  -8.7673357e-05  -4.4113295e-04  -4.0003367e-04  -2.9349627e-04  -6.7831941e-05  -4.7435585e-05  -1.6730138e-05  -4.2097811e-05  -2.0384406e-04  -1.1849447e-04   0.0000000e+00  -3.9044811e-06  -7.8478758e-05   1.4455027e-04   2.2941100e-05   7.0950273e-05   1.4321526e-04   3.9772479e-05  -2.0774817e-05  -2.6010074e-04  -1.4874866e-05  -3.2314598e-05   3.0349394e-05  -7.2918761e-05  -3.2814931e-04   5.1480705e-05  -8.6010971e-05   1.3166212e-03   2.3908327e-04  -3.3924422e-06   1.0041213e-03  -1.1989840e-04  -3.4697351e-04  -8.0164333e-04  -6.9735447e-04  -4.1816792e-04  -1.7632900e-04  -2.0032913e-04  -7.1144709e-04  -7.0553198e-04  -3.7997978e-04  -8.3685247e-04  -3.3616097e-04  -5.9371316e-04  -4.5359704e-04  -5.3055517e-04  -9.2038804e-04  -5.4115120e-04   0.0000000e+00  -3.0433971e-04  -5.7110080e-04   5.1584912e-05  -2.6367300e-04  -6.1701602e-05   4.2936255e-05   1.0910226e-05   1.2306479e-04  -3.3594260e-04  -2.3936609e-04  -2.7543866e-04  -9.3225008e-05   9.8991178e-05   1.1739709e-05  -3.1794884e-04  -4.3523034e-04  -1.8105509e-04  -9.9367211e-05  -5.7592179e-06  -7.1951125e-05  -2.3982310e-05  -3.7511572e-05   1.6919944e-05   4.9845237e-05  -2.1382062e-05  -4.4759402e-05  -4.4022365e-05  -7.8667871e-05  -2.0218792e-05  -7.7886343e-06   3.3275743e-05  -5.1899379e-05  -6.8563261e-05  -4.2575705e-05  -6.8403051e-05  -5.6097475e-05  -5.4748980e-05   0.0000000e+00  -4.3565839e-05  -6.7476699e-05  -1.1707244e-05  -5.1255125e-05  -3.9218655e-05  -2.6258008e-05  -3.9011989e-05  -4.3582276e-05  -8.3330306e-06  -2.8743954e-05  -6.0158419e-05  -5.2413108e-05  -2.5223831e-05  -8.3630840e-05  -3.6524638e-06  -2.5314842e-05  -3.8322485e-06  -1.0060273e-05  -2.9991467e-05  -4.5853550e-05  -2.2906368e-05   1.3277305e-05  -2.4250047e-05  -1.0869193e-04  -9.7678208e-05   1.6541611e-05   8.2100493e-05   8.3751255e-05   1.3993415e-05   2.2983268e-05  -9.3619967e-05  -6.4383444e-05  -3.8257985e-05   3.9610350e-05   3.1224937e-05  -1.3279778e-05  -2.0832403e-05   0.0000000e+00  -4.0352118e-05  -1.0490881e-04  -5.0318529e-05  -3.5533895e-05   2.6629426e-05  -2.2318398e-05  -3.5590515e-05  -5.0415448e-06  -2.3957925e-04   1.7728196e-05   5.4513123e-05  -1.4623695e-05  -4.4095400e-05  -7.5867917e-05  -2.9177289e-04  -1.2873492e-04  -3.5318532e-05  -3.4034281e-05  -8.4209795e-06   2.1450044e-06  -2.4283701e-05  -3.1587052e-05   1.7981577e-05   7.3313943e-05  -2.5735915e-05  -3.1026350e-05  -4.3929625e-05  -2.3770285e-05  -5.1873366e-05   1.6603385e-05   2.8264139e-05  -2.9800087e-05  -4.8870633e-05  -4.0598881e-05  -5.1816788e-05  -4.1439608e-05  -1.4952472e-05   0.0000000e+00  -3.4077914e-05  -6.7304873e-05  -7.5957155e-06  -7.4894920e-05  -8.9493016e-05  -5.8497455e-05  -1.1464586e-04  -6.2896006e-05  -6.5565375e-05  -1.7281520e-05  -3.4220689e-05  -3.2509280e-05  -5.8408576e-05  -1.3572946e-04   3.9763677e-05  -1.0005532e-05  -2.0099877e-04  -1.6998763e-04  -6.9506381e-05  -1.6981858e-04  -7.8508127e-05  -2.5511631e-05  -9.8592302e-05  -1.1517112e-05  -8.4342462e-05  -2.1844287e-05   5.4335136e-05   3.9792521e-05  -6.7519238e-05  -6.2671594e-05   7.1453376e-05  -1.4079831e-06   5.6521789e-05   2.7096389e-05  -5.2716225e-05  -1.1514066e-04   6.0930424e-05   0.0000000e+00  -2.5127736e-05  -2.0215982e-04  -2.6066254e-04   1.2752745e-05   3.5040158e-05  -1.7544858e-04  -1.6051853e-04  -3.8952366e-05  -1.5237220e-04   3.0367709e-05   3.0594673e-05   5.6200033e-06  -6.5526613e-05  -3.6354435e-05  -1.4656077e-04  -1.2909493e-04  -2.6451506e-04  -2.4408249e-04  -1.4289598e-04  -1.9989585e-04  -2.1487950e-04  -1.8980367e-04  -4.6288017e-04  -3.4183234e-04  -2.8628674e-04  -2.2641478e-04  -8.5526755e-05  -1.3021477e-04  -1.3899503e-04  -1.3837508e-04  -6.2613426e-05  -1.9092647e-04  -1.8091778e-04  -6.9536878e-05  -1.8894660e-04  -2.8968188e-04   2.7760326e-05   0.0000000e+00  -1.8266889e-04  -4.3936208e-04  -3.6863454e-04  -2.2063831e-04  -1.8625574e-04  -3.2670789e-04  -1.7084046e-04  -7.7891655e-05  -3.6127154e-04  -1.2776874e-05  -7.8923505e-05  -5.4849113e-05  -1.0853220e-04  -4.5519755e-05  -2.2662178e-04  -1.5940872e-04  -1.3936267e-04  -1.4737337e-04  -1.2330817e-04  -2.2755832e-04  -1.1471878e-04  -1.1800129e-04  -9.7014244e-05  -8.2426103e-05  -2.0535051e-04  -1.0789024e-04   3.5221076e-05  -3.9922469e-05  -3.6032381e-05   2.8977619e-05  -9.1926292e-06   1.3645630e-04   2.4351342e-04   3.0485902e-05  -9.7590183e-05  -2.1040110e-04  -7.3894406e-05   0.0000000e+00  -9.5778625e-05  -2.9762503e-04  -2.8562166e-04  -4.8708947e-05  -1.1267130e-04  -2.7666022e-04  -7.1847634e-05  -2.8630418e-05  -2.3007131e-04  -3.8567235e-05  -7.4733141e-05  -9.0289797e-05  -1.5113906e-04  -2.6345231e-06  -1.8396610e-04  -2.1759172e-04  -1.8046707e-05   3.0652178e-05  -3.2935453e-05  -1.1598053e-04  -2.2445254e-05   1.6876571e-05  -6.6489699e-05   6.3635309e-05  -3.4995122e-05   3.4594314e-05   1.0270973e-04   1.0831413e-04   1.9062527e-04   2.2928338e-04   1.4734218e-04   5.2958816e-05   1.1741744e-04   1.3175667e-04   6.9857051e-05   1.0918069e-07   1.0799471e-04   0.0000000e+00  -3.0560918e-05  -2.0846155e-04  -9.9644811e-05  -1.1357999e-04  -1.1056108e-04  -1.6068053e-04  -9.5570695e-05  -5.0300776e-05  -2.2499006e-04   6.4005699e-07  -4.2202301e-05  -7.6721139e-05  -1.1134835e-04  -5.4945266e-05  -1.6589742e-04  -1.5492443e-04   2.5501341e-05   1.0934752e-04   4.6604396e-05  -1.8632965e-04   1.4432082e-04   4.6786385e-04   5.0179336e-04  -5.1118856e-05   1.2959546e-04   3.5965584e-04   5.4604508e-04   7.6316878e-04   6.2355695e-04   3.7610265e-04   7.1432637e-05   4.2458264e-04   4.8937472e-04   5.3093136e-04   8.0923337e-04   9.5667577e-04   6.3281055e-04   0.0000000e+00   2.8039348e-04   8.2899028e-05   2.9770011e-06   4.1392759e-04   3.1194524e-04   1.1684078e-04   2.0326293e-04   1.5769885e-04   2.8700517e-04   4.2689024e-04   4.9775439e-04   2.9135530e-04   1.5014282e-04   3.4918626e-04  -2.1427939e-04   1.0889799e-04   9.9008615e-05   3.7027212e-05  -4.4550521e-05   2.1946742e-04  -1.4053376e-04  -3.4056701e-04  -3.8227265e-04   3.0265644e-04  -7.0685525e-05  -2.6973868e-05  -5.6257902e-05  -3.6244764e-04  -1.7801207e-04  -1.3486333e-04   9.1474674e-05  -1.8939996e-04  -2.7624826e-04  -2.8712597e-04  -4.1078875e-04  -9.5223516e-04  -3.3892140e-04   0.0000000e+00  -1.1039116e-04  -6.6947698e-04  -1.6792723e-04  -1.5271290e-04  -1.5757250e-04  -3.0725700e-04  -2.7482502e-04  -4.4326355e-05  -5.7511713e-04  -5.9461239e-05  -2.5326292e-04  -2.4986373e-04  -1.0407472e-04  -1.9903737e-04  -3.9537921e-04  -4.4835596e-04
   7.6889196e-05   3.7056386e-05   2.2202118e-06   1.0945482e-05   1.4936841e-05   1.0924047e-05   3.7934861e-05  -4.2915129e-05  -2.2468084e-05  -9.6444133e-07  -3.2335462e-05   3.7423092e-06   7.9008809e-05   5.9897659e-06  -1.6161385e-05  -3.3604879e-05  -9.6748299e-05  -4.8406255e-05   8.7674312e-06   1.0246935e-05  -7.0676262e-06   0.0000000e+00   6.6726351e-06   2.7375010e-05   2.3127737e-06   3.5310571e-05   3.3404808e-06   4.2977395e-05   2.8272552e-05   3.4169267e-05   3.2855743e-05  -2.0522398e-05  -2.2501426e-05  -1.2975571e-05   2.1139694e-05   6.1099387e-05   6.9568945e-05   1.0246543e-04   7.2926211e-04   3.4755512e-04   1.3172653e-05   5.3407376e-04  -1.4985465e-05  -7.2667539e-05  -6.3293575e-04  -3.4563568e-04  -4.5509495e-05   9.6694159e-05   1.1756813e-04  -9.3976951e-05  -4.4856091e-04  -3.9496243e-04  -3.1257065e-04  -6.6978581e-05  -3.9405418e-05  -1.5904374e-05  -5.9725789e-05  -2.3227840e-04  -1.1903552e-04   0.0000000e+00  -3.1701381e-06  -9.5477121e-05   1.6227162e-04   2.9805748e-05   8.0381126e-05   1.5631216e-04   3.4247475e-05  -2.6596748e-05  -2.8592054e-04  -2.6646984e-06  -3.3747060e-05   2.4356173e-05  -7.6565093e-05  -3.6468717e-04   5.0097533e-05  -9.3655707e-05   1.4967988e-03   3.0738033e-04  -3.8221485e-07   1.1329227e-03  -1.2615106e-04  -3.5160931e-04  -8.4156889e-04  -7.4466169e-04  -3.9303720e-04  -1.5178764e-04  -1.7106629e-04  -7.1580056e-04  -7.4568374e-04  -3.5502394e-04  -8.8104541e-04  -3.0381743e-04  -5.6191909e-04  -4.3057874e-04  -5.1367553e-04  -9.3990379e-04  -5.0641898e-04   0.0000000e+00  -3.0550846e-04  -6.3562743e-04   3.9455600e-05  -2.3766428e-04  -4.2382269e-05   4.3492691e-05   4.6072091e-06   1.2351582e-04  -4.3731404e-04  -1.9214645e-04  -2.5397240e-04  -9.5057895e-05   1.0342235e-04  -1.0840847e-05  -3.4096753e-04  -4.4782066e-04  -1.7630937e-04  -1.0149892e-04  -1.0208726e-05  -7.8802322e-05  -3.0086957e-05  -4.1909343e-05   1.0405766e-05   4.7563917e-05  -2.5378297e-05  -5.0496199e-05  -4.2576228e-05  -8.0044027e-05  -2.5195604e-05  -1.0436264e-05   2.7263686e-05  -5.3824780e-05  -6.5277124e-05  -3.9373592e-05  -7.0537407e-05  -6.3320198e-05  -5.5057047e-05   0.0000000e+00  -4.5177606e-05  -7.6856617e-05  -2.1383829e-05  -5.2202993e-05  -3.7654006e-05  -3.4656503e-05  -3.4515597e-05  -4.4962534e-05  -1.6808913e-05  -2.8604145e-05  -5.5442775e-05  -5.0700849e-05  -2.7555842e-05  -8.1132397e-05  -1.3602278e-05  -3.2424050e-05  -1.4545251e-05  -1.3978088e-05  -3.0670705e-05  -5.0961947e-05  -2.7087940e-05   2.9850248e-06  -2.4439856e-05  -1.1561871e-04  -1.0114591e-04   9.5197830e-06   7.4807990e-05   7.1213630e-05   1.3460127e-05   1.7319352e-05  -1.0421442e-04  -6.8002877e-05  -3.6503095e-05   3.8283121e-05   1.9910956e-05  -2.4102303e-05  -2.8167862e-05   0.0000000e+00  -4.6543258e-05  -1.0054732e-04  -4.9381638e-05  -4.6397716e-05   2.1486318e-05  -2.5086277e-05  -3.7316144e-05  -7.6132262e-06  -2.3878275e-04   1.3191533e-05   4.6721803e-05  -1.4247444e-05  -4.7309432e-05  -8.1227512e-05  -2.9814165e-04  -1.3033800e-04  -4.0714289e-05  -3.9807275e-05  -1.1100336e-05  -3.4009298e-06  -2.7764427e-05  -3.6295860e-05   1.2211760e-05   6.3660686e-05  -2.9789419e-05  -3.2538746e-05  -4.2428661e-05  -2.7971219e-05  -5.4573972e-05   1.7888187e-05   1.6583458e-05  -2.5928237e-05  -4.2135519e-05  -3.7078539e-05  -5.5724804e-05  -4.9476286e-05  -1.6375876e-05   0.0000000e+00  -3.6485469e-05  -7.4100632e-05  -7.9142102e-06  -7.5412713e-05  -9.0488407e-05  -5.8714787e-05  -1.1560001e-04  -6.5166882e-05  -6.6283763e-05  -1.7298152e-05  -3.4779310e-05  -3.1843351e-05  -5.8273481e-05  -1.3549563e-04   4.0694856e-05  -1.4223446e-05  -2.0935853e-04  -1.7195781e-04  -7.2956541e-05  -1.6905208e-04  -8.2030587e-05  -2.7481062e-05  -1.1361618e-04  -1.0934485e-05  -8.5807155e-05  -3.3426614e-05   5.1834873e-05   4.0607537e-05  -8.0970871e-05  -6.7249900e-05   7.3006982e-05  -3.7287234e-06   6.3826505e-05   2.9143719e-05  -4.6463401e-05  -1.0733313e-04   5.9583881e-05   0.0000000e+00  -2.8318866e-05  -2.0160504e-04  -2.6424072e-04   7.3222000e-06   3.2093364e-05  -1.8291087e-04  -1.6544758e-04  -4.8771983e-05  -1.6843038e-04   3.1302825e-05   2.6346354e-05   1.9250746e-06  -6.7971509e-05  -4.9676018e-05  -1.6093469e-04  -1.4217709e-04  -2.7574333e-04  -2.5858219e-04  -1.4094085e-04  -2.1370898e-04  -2.1578351e-04  -1.9092842e-04  -4.4241571e-04  -3.1227233e-04  -2.7812952e-04  -2.2461804e-04  -8.5340425e-05  -1.2837196e-04  -1.3761636e-04  -1.3549213e-04  -4.5308999e-05  -1.8965964e-04  -1.8437945e-04  -6.8006909e-05  -1.9553626e-04  -2.8864195e-04   3.0679217e-05   0.0000000e+00  -1.8308424e-04  -4.5184320e-04  -3.8744637e-04  -2.2586348e-04  -1.9384969e-04  -3.3664332e-04  -1.7048039e-04  -7.9811330e-05  -3.5328937e-04  -1.5800571e-05  -7.9613696e-05  -5.7301425e-05  -1.1145856e-04  -3.9713418e-05  -2.3565994e-04  -1.6234208e-04  -1.5542181e-04  -1.5163315e-04  -1.2295941e-04  -2.2620720e-04  -1.2315287e-04  -1.2960754e-04  -1.1196465e-04  -7.6231898e-05  -2.1078207e-04  -1.1033755e-04   2.8474924e-05  -4.5912775e-05  -4.1871971e-05   2.6232171e-05   5.1389487e-06   1.4184987e-04   2.5992792e-04   2.3174887e-05  -1.1153637e-04  -2.3379595e-04  -7.9957359e-05   0.0000000e+00  -1.0628907e-04  -2.8986126e-04  -2.8490660e-04  -6.8860660e-05  -1.2495156e-04  -2.7970487e-04  -8.0078731e-05  -3.6527552e-05  -2.3960876e-04  -5.4659188e-05  -1.0104622e-04  -9.1055230e-05  -1.5114117e-04  -6.9668955e-06  -2.0604657e-04  -2.3507719e-04  -3.5699632e-05   1.0677599e-05  -3.8361653e-05  -1.3572711e-04  -2.6315099e-05   1.1387739e-05  -8.7351918e-05   4.2763132e-05  -4.4094347e-05   2.4374653e-05   1.0010433e-04   1.0110468e-04   1.9017671e-04   2.1887570e-04   1.3069437e-04   5.5222332e-05   1.2798656e-04   1.4011021e-04   7.1045277e-05  -7.0211476e-06   9.5828192e-05   0.0000000e+00  -3.5892972e-05  -2.1139287e-04  -1.0546349e-04  -1.1989566e-04  -1.1147216e-04  -1.6217068e-04  -9.0457134e-05  -5.6114672e-05  -2.0434534e-04  -1.0504989e-05  -4.1590537e-05  -6.3858003e-05  -1.1148528e-04  -4.5182266e-05  -1.5376401e-04  -1.5067740e-04   8.8057762e-07   8.5498679e-05   3.3842705e-05  -2.1904707e-04   1.3230414e-04   4.5343211e-04   4.8075536e-04  -6.1422572e-05   1.0401163e-04   3.2252718e-04   5.2759982e-04   7.4492237e-04   6.2577810e-04   3.7757630e-04   5.0058580e-05   4.1512595e-04   4.9905928e-04   5.3690936e-04   8.0080900e-04   9.6098150e-04   6.2560625e-04   0.0000000e+00   2.5095012e-04   5.7992989e-05  -1.2052162e-05   3.6844571e-04   2.8015672e-04   9.1103941e-05   1.8068538e-04   1.3175754e-04   2.8365931e-04   4.0228562e-04   4.5396956e-04   2.6762606e-04   1.2715970e-04   3.2044823e-04  -2.2470153e-04   8.8639516e-05   6.8114649e-05   9.5443915e-06  -5.3786980e-05   1.8005788e-04  -1.5117881e-04  -3.4270853e-04  -3.8658608e-04   3.0848530e-04  -8.6563706e-05  -4.6779192e-05  -6.3077712e-05  -3.4879014e-04  -1.7805657e-04  -1.4228980e-04   9.7828775e-05  -2.0271427e-04  -2.8985441e-04  -2.9520590e-04  -4.2077092e-04  -9.5995986e-04  -3.3111734e-04   0.0000000e+00  -1.0725468e-04  -6.6558645e-04  -1.8647492e-04  -1.3910253e-04  -1.4889083e-04  -3.2107279e-04  -2.6436102e-04  -4.1301663e-05  -5.7270251e-04  -5.5742869e-05  -2.3996151e-04  -2.2838740e-04  -9.8867464e-05  -1.6750079e-04  -3.6556748e-04  -4.1748372e-04
   6.3842744e-05   2.4249915e-05  -4.6542593e-06  -6.3002342e-07   7.0531088e-06   3.9325918e-06   2.9094567e-05  -5.1046086e-05  -3.6230533e-05  -8.5429382e-06  -3.3183802e-05  -1.4425841e-06   7.6329776e-05   5.5161461e-06  -1.7839747e-05  -4.0847440e-05  -1.0094317e-04  -4.9220298e-05   1.4217621e-07  -3.5543756e-06  -8.6931176e-06   0.0000000e+00   1.9214075e-06   4.0572822e-06  -1.0120636e-05   2.8966760e-05  -2.1270195e-06   2.9509206e-05   1.3714883e-05   2.8441453e-05   1.7877178e-05  -2.1200125e-05  -2.5749509e-05  -1.7304222e-05   1.3853568e-05   5.1505818e-05   6.4109455e-05   9.6822305e-05   7.5514269e-04   3.7034551e-04   1.2122207e-05   5.4646259e-04  -1.7642162e-05  -7.6321456e-05  -6.2928654e-04  -3.6312037e-04  -3.0602384e-05   1.0383432e-04   1.1866772e-04  -9.5441258e-05  -4.4845636e-04  -3.8253382e-04  -3.2764886e-04  -6.2572332e-05  -2.6787222e-05  -1.2698152e-05  -7.5018671e-05  -2.5506152e-04  -1.1538502e-04   0.0000000e+00   1.0570520e-07  -1.1046614e-04   1.8078994e-04   3.8421163e-05   9.2280004e-05   1.7097178e-04   3.0706897e-05  -3.1009547e-05  -3.0731051e-04   1.1153910e-05  -3.3103123e-05   1.8519652e-05  -7.8129842e-05  -3.9788413e-04   4.9215809e-05  -9.9151291e-05   1.6588959e-03   3.7496094e-04   2.0674728e-06   1.2445767e-03  -1.3168687e-04  -3.5091125e-04  -8.7231139e-04  -7.8770184e-04  -3.5994835e-04  -1.2515283e-04  -1.3617305e-04  -7.0597237e-04  -7.7169919e-04  -3.1922541e-04  -9.1532023e-04  -2.6537628e-04  -5.1892589e-04  -3.9668509e-04  -4.8732917e-04  -9.4679314e-04  -4.6138441e-04   0.0000000e+00  -3.0159068e-04  -6.9041038e-04   2.6810993e-05  -2.0792817e-04  -2.1336976e-05   4.4975829e-05  -4.6274363e-06   1.1620790e-04  -5.3973973e-04  -1.4033309e-04  -2.2765526e-04  -9.1776845e-05   1.0828021e-04  -3.2889327e-05  -3.5655868e-04  -4.5253647e-04  -1.7182622e-04  -1.0302125e-04  -1.4252371e-05  -8.5193066e-05  -3.5660446e-05  -4.5570356e-05   4.5572965e-06   4.4040531e-05  -2.8605380e-05  -5.4895630e-05  -3.9637028e-05  -7.9547604e-05  -2.9667850e-05  -1.3900164e-05   2.1086650e-05  -5.4701163e-05  -6.0232430e-05  -3.5075103e-05  -7.1484991e-05  -6.9159334e-05  -5.3579016e-05   0.0000000e+00  -4.5364803e-05  -8.5235403e-05  -3.0643672e-05  -5.1564007e-05  -3.4129949e-05  -4.1863932e-05  -2.9106383e-05  -4.6174188e-05  -2.4571926e-05  -2.7327727e-05  -4.9284780e-05  -4.7874093e-05  -2.9305251e-05  -7.7987500e-05  -2.3683844e-05  -3.8883090e-05  -2.3852320e-05  -1.6557453e-05  -3.0292483e-05  -5.4510563e-05  -3.0087315e-05  -7.0033551e-06  -2.2634407e-05  -1.2070493e-04  -1.0150093e-04   3.6661397e-06   6.7959543e-05   5.8500698e-05   1.4135242e-05   1.2217518e-05  -1.1318406e-04  -6.9194628e-05  -3.3243875e-05   3.7337429e-05   8.6806945e-06  -3.3965440e-05  -3.3839220e-05   0.0000000e+00  -5.0833922e-05  -9.3650776e-05  -4.6615148e-05  -5.5276256e-05   1.7238454e-05  -2.5986766e-05  -3.7842111e-05  -9.5724532e-06  -2.3331542e-04   9.9293419e-06   3.8259236e-05  -1.3390136e-05  -4.8788953e-05  -8.5247476e-05  -3.0142877e-04  -1.2998093e-04  -4.5462032e-05  -4.4760643e-05  -1.3551618e-05  -9.3664564e-06  -3.0523507e-05  -3.9813344e-05   8.0909796e-06   5.5159253e-05  -3.3399273e-05  -3.2644211e-05  -3.8577870e-05  -3.0473123e-05  -5.6174540e-05   1.9395690e-05   6.8880547e-06  -2.1371919e-05  -3.3881220e-05  -3.1843728e-05  -5.8094033e-05  -5.5662461e-05  -1.5921289e-05   0.0000000e+00  -3.7431566e-05  -7.9989344e-05  -8.9336460e-06  -7.3720587e-05  -8.9208969e-05  -5.8112063e-05  -1.1433581e-04  -6.5754500e-05  -6.5886024e-05  -1.5694419e-05  -3.3116726e-05  -3.0366967e-05  -5.7120870e-05  -1.3270288e-04   4.1429366e-05  -1.7049740e-05  -2.1267787e-04  -1.6970593e-04  -7.5014978e-05  -1.6320967e-04  -8.4325959e-05  -3.0088811e-05  -1.2870158e-04  -1.2356697e-05  -8.5159150e-05  -4.4315310e-05   4.6943697e-05   3.8415028e-05  -9.4082586e-05  -7.1174769e-05   7.2295113e-05  -4.8214172e-06   7.0519964e-05   2.9587471e-05  -4.1302332e-05  -9.9502590e-05   5.5406302e-05   0.0000000e+00  -3.1903985e-05  -1.9768756e-04  -2.6434310e-04  -4.0668234e-07   2.7069272e-05  -1.8851192e-04  -1.6966759e-04  -5.8887107e-05  -1.8535341e-04   3.0498836e-05   1.8711268e-05  -3.2644787e-06  -7.0065402e-05  -6.4603028e-05  -1.7526600e-04  -1.5474957e-04  -2.8215906e-04  -2.6998341e-04  -1.3684612e-04  -2.2224873e-04  -2.1375936e-04  -1.8971369e-04  -4.2123779e-04  -2.8393749e-04  -2.6681560e-04  -2.2029712e-04  -8.5196754e-05  -1.2479627e-04  -1.3611361e-04  -1.3399719e-04  -3.0236596e-05  -1.8704400e-04  -1.8781996e-04  -6.6979324e-05  -2.0052548e-04  -2.8532183e-04   3.1438879e-05   0.0000000e+00  -1.8310627e-04  -4.5962134e-04  -4.0086483e-04  -2.3014980e-04  -1.9997703e-04  -3.4337959e-04  -1.7175419e-04  -8.2393521e-05  -3.4548987e-04  -1.9888199e-05  -8.2998585e-05  -5.9888798e-05  -1.1330813e-04  -3.7205893e-05  -2.4227940e-04  -1.6483351e-04  -1.6879885e-04  -1.5266862e-04  -1.1963536e-04  -2.1931751e-04  -1.2961419e-04  -1.4058314e-04  -1.2468045e-04  -7.0047956e-05  -2.1079128e-04  -1.1103079e-04   1.8819609e-05  -5.4256138e-05  -4.6421092e-05   2.2669402e-05   1.9080376e-05   1.4671065e-04   2.7502626e-04   1.4448778e-05  -1.2621395e-04  -2.5619611e-04  -8.7142082e-05   0.0000000e+00  -1.1480274e-04  -2.7575329e-04  -2.7822359e-04  -8.8990323e-05  -1.3659557e-04  -2.7709976e-04  -8.6260458e-05  -4.3716313e-05  -2.4647695e-04  -7.1614711e-05  -1.3021987e-04  -9.1035040e-05  -1.4874740e-04  -1.0895359e-05  -2.2849188e-04  -2.5164979e-04  -5.4575969e-05  -8.6806038e-06  -4.2955825e-05  -1.5419062e-04  -2.9519198e-05   6.7354703e-06  -1.0512139e-04   2.2377474e-05  -5.0797609e-05   1.5868723e-05   9.8460815e-05   9.4270641e-05   1.8843683e-04   2.0669452e-04   1.1523406e-04   5.7580746e-05   1.3948973e-04   1.4789104e-04   7.1764382e-05  -1.2803641e-05   8.4798194e-05   0.0000000e+00  -3.9123855e-05  -2.1136021e-04  -1.1032891e-04  -1.2244256e-04  -1.0838696e-04  -1.6084528e-04  -8.3316451e-05  -5.9943278e-05  -1.8279868e-04  -1.9989931e-05  -3.9791216e-05  -5.0657564e-05  -1.0930459e-04  -3.4175457e-05  -1.4108983e-04  -1.4458591e-04  -2.6159791e-05   5.9658523e-05   1.9743700e-05  -2.5261823e-04   1.1763484e-04   4.3005061e-04   4.5149815e-04  -7.5218294e-05   7.5909091e-05   2.8064793e-04   5.0090557e-04   7.1257107e-04   6.2354153e-04   3.7793823e-04   2.2949031e-05   4.0261001e-04   5.0390225e-04   5.3479703e-04   7.7950104e-04   9.4773641e-04   6.0665474e-04   0.0000000e+00   2.1828082e-04   3.0692301e-05  -2.8473973e-05   3.1774311e-04   2.4385428e-04   6.3955978e-05   1.5917919e-04   1.0775935e-04   2.7723255e-04   3.7089550e-04   4.0530861e-04   2.3920168e-04   1.0406891e-04   2.8964611e-04  -2.3729873e-04   6.4770446e-05   3.8410102e-05  -1.4970696e-05  -6.3216069e-05   1.4156689e-04  -1.6143475e-04  -3.4360496e-04  -3.8990701e-04   3.1109786e-04  -1.0302136e-04  -6.8966807e-05  -7.3876493e-05  -3.3609433e-04  -1.7603890e-04  -1.4715235e-04   1.0542281e-04  -2.1774780e-04  -3.0226892e-04  -3.0409243e-04  -4.3080170e-04  -9.6469993e-04  -3.2133347e-04   0.0000000e+00  -1.0758596e-04  -6.6217662e-04  -2.0439067e-04  -1.2784004e-04  -1.4225164e-04  -3.3571935e-04  -2.5653929e-04  -3.8486159e-05  -5.7082819e-04  -5.3212379e-05  -2.2794071e-04  -2.1053724e-04  -9.5667415e-05  -1.3988642e-04  -3.3647329e-04  -3.8716162e-04
   4.9448442e-05   1.0520101e-05  -1.1672847e-05  -1.2624227e-05  -1.0895745e-06  -3.2908458e-06   1.9415520e-05  -5.7343242e-05  -5.0547059e-05  -1.6602082e-05  -3.3597489e-05  -6.5648330e-06   7.2299433e-05   4.9681753e-06  -1.8473340e-05  -4.8163824e-05  -1.0449529e-04  -4.9476764e-05  -8.7214989e-06  -1.7768768e-05  -9.7857495e-06   0.0000000e+00  -2.9805311e-06  -1.9445017e-05  -2.3207717e-05   2.2074425e-05  -8.1458066e-06   1.4925509e-05  -1.4223997e-06   2.2202571e-05   2.9509462e-06  -2.1727334e-05  -2.9060612e-05  -2.1542458e-05   6.2042234e-06   4.1394302e-05   5.7900935e-05   9.0198460e-05   7.6795326e-04   3.8837227e-04   1.1272577e-05   5.4962318e-04  -1.8934504e-05  -7.7162646e-05  -6.1498801e-04  -3.7489943e-04  -1.2810890e-05   1.1328250e-04   1.2156759e-04  -9.2185732e-05  -4.4125203e-04  -3.6369309e-04  -3.3841537e-04  -5.4851501e-05  -1.0028143e-05  -7.3089959e-06  -8.7517698e-05  -2.7155490e-04  -1.0784910e-04   0.0000000e+00   5.6929390e-06  -1.2295166e-04   1.9953704e-04   4.8301908e-05   1.0621422e-04   1.8681819e-04   2.9325592e-05  -3.3916678e-05  -3.2397542e-04   2.5881415e-05  -3.0475721e-05   1.3045619e-05  -7.7659673e-05  -4.2683267e-04   4.9024456e-05  -1.0244388e-04   1.7974927e-03   4.3945537e-04   3.8611309e-06   1.3349831e-03  -1.3611963e-04  -3.4456621e-04  -8.8965727e-04  -8.2265810e-04  -3.2058254e-04  -9.7374299e-05  -9.6409750e-05  -6.8193790e-04  -7.8243943e-04  -2.7311377e-04  -9.3867588e-04  -2.2285845e-04  -4.6650294e-04  -3.5297749e-04  -4.5232268e-04  -9.4073698e-04  -4.0725036e-04   0.0000000e+00  -2.9261911e-04  -7.3341432e-04   1.4476472e-05  -1.7544762e-04   5.4683430e-07   4.7358072e-05  -1.6617021e-05   1.0204951e-04  -6.3803943e-04  -8.5744271e-05  -1.9780972e-04  -8.3909745e-05   1.1271058e-04  -5.2783890e-05  -3.6483482e-04  -4.4990979e-04  -1.6814294e-04  -1.0391134e-04  -1.7590821e-05  -9.0738346e-05  -4.0344426e-05  -4.8244713e-05  -2.6225741e-07   3.9743056e-05  -3.0755707e-05  -5.7634551e-05  -3.5285099e-05  -7.7161025e-05  -3.3514082e-05  -1.8018942e-05   1.5192478e-05  -5.4452260e-05  -5.3712159e-05  -2.9932163e-05  -7.1161384e-05  -7.3213783e-05  -5.0383746e-05   0.0000000e+00  -4.4088075e-05  -9.2145945e-05  -3.8886498e-05  -4.9321823e-05  -2.8785302e-05  -4.7477678e-05  -2.3062988e-05  -4.7260362e-05  -3.1233885e-05  -2.4940445e-05  -4.1980330e-05  -4.4104018e-05  -3.0386131e-05  -7.4494016e-05  -3.3494037e-05  -4.4455409e-05  -3.1191025e-05  -1.7503980e-05  -2.8857184e-05  -5.6329677e-05  -3.1729202e-05  -1.6172483e-05  -1.8987998e-05  -1.2355744e-04  -9.8738365e-05  -6.3810400e-07   6.2011607e-05   4.6256408e-05   1.5865907e-05   7.9622137e-06  -1.2016618e-04  -6.7964546e-05  -2.8649751e-05   3.6900452e-05  -2.0108541e-06  -4.2296735e-05  -3.7592054e-05   0.0000000e+00  -5.2995598e-05  -8.4257179e-05  -4.2102101e-05  -6.1810620e-05   1.4147010e-05  -2.4920274e-05  -3.7295147e-05  -1.0916935e-05  -2.2325656e-04   8.0308586e-06   2.9636341e-05  -1.2019804e-05  -4.8419579e-05  -8.7815582e-05  -3.0178182e-04  -1.2775921e-04  -4.9484705e-05  -4.8710195e-05  -1.5599426e-05  -1.5333018e-05  -3.2398749e-05  -4.1962754e-05   5.8372210e-06   4.8430660e-05  -3.6330063e-05  -3.1252004e-05  -3.2543956e-05  -3.1145147e-05  -5.6763336e-05   2.1014062e-05  -2.7730594e-07  -1.6350759e-05  -2.4581215e-05  -2.5193502e-05  -5.8857289e-05  -5.9715661e-05  -1.3639505e-05   0.0000000e+00  -3.6895707e-05  -8.4746727e-05  -1.0464761e-05  -7.0007680e-05  -8.5778829e-05  -5.6696239e-05  -1.1126864e-04  -6.4888837e-05  -6.4525439e-05  -1.2575269e-05  -2.9337552e-05  -2.8174380e-05  -5.5146826e-05  -1.2792351e-04   4.2022670e-05  -1.8497009e-05  -2.1052823e-04  -1.6314109e-04  -7.5476365e-05  -1.5212569e-04  -8.5153161e-05  -3.3062153e-05  -1.4337265e-04  -1.5774907e-05  -8.2108153e-05  -5.3738583e-05   4.0046810e-05   3.3372976e-05  -1.0650821e-04  -7.4319882e-05   6.9233799e-05  -4.2988625e-06   7.6560860e-05   2.8511802e-05  -3.7163079e-05  -9.1639481e-05   4.8642208e-05   0.0000000e+00  -3.5596842e-05  -1.9019479e-04  -2.6084984e-04  -9.9034819e-06   2.0402058e-05  -1.9185005e-04  -1.7302016e-04  -6.8939729e-05  -2.0241013e-04   2.8102107e-05   8.1674206e-06  -9.5823160e-06  -7.1603836e-05  -8.0655106e-05  -1.8929478e-04  -1.6654430e-04  -2.8306276e-04  -2.7751504e-04  -1.3055081e-04  -2.2465473e-04  -2.0859477e-04  -1.8611072e-04  -4.0026336e-04  -2.5815633e-04  -2.5254664e-04  -2.1334203e-04  -8.4996261e-05  -1.1967569e-04  -1.3442751e-04  -1.3398189e-04  -1.8035383e-05  -1.8296146e-04  -1.9116127e-04  -6.6364992e-05  -2.0367135e-04  -2.7972257e-04   2.9859072e-05   0.0000000e+00  -1.8260883e-04  -4.6170816e-04  -4.0814149e-04  -2.3330468e-04  -2.0443872e-04  -3.4651634e-04  -1.7415066e-04  -8.5305486e-05  -3.3776020e-04  -2.4884668e-05  -8.9075516e-05  -6.2471345e-05  -1.1377658e-04  -3.7767477e-05  -2.4639666e-04  -1.6674745e-04  -1.7908212e-04  -1.5057332e-04  -1.1361518e-04  -2.0733577e-04  -1.3396729e-04  -1.5075466e-04  -1.3506318e-04  -6.4489252e-05  -2.0571882e-04  -1.1021644e-04   6.4445071e-06  -6.4880881e-05  -4.9688904e-05   1.8314435e-05   3.1987064e-05   1.5072186e-04   2.8853795e-04   4.5678513e-06  -1.4132827e-04  -2.7714201e-04  -9.5395611e-05   0.0000000e+00  -1.2117748e-04  -2.5633615e-04  -2.6623139e-04  -1.0853600e-04  -1.4735811e-04  -2.6926532e-04  -9.0301507e-05  -5.0069908e-05  -2.5098800e-04  -8.8850736e-05  -1.6124741e-04  -9.0407921e-05  -1.4420041e-04  -1.4212888e-05  -2.5122730e-04  -2.6725957e-04  -7.3731401e-05  -2.6460068e-05  -4.6486761e-05  -1.7040738e-04  -3.1887925e-05   3.1278714e-06  -1.1908948e-04   3.8222932e-06  -5.4891857e-05   9.5464178e-06   9.7842121e-05   8.8016961e-05   1.8547509e-04   1.9337882e-04   1.0206843e-04   5.9908112e-05   1.5145295e-04   1.5475378e-04   7.2004699e-05  -1.7044991e-05   7.5171258e-05   0.0000000e+00  -4.0095760e-05  -2.0813389e-04  -1.1383984e-04  -1.2127119e-04  -1.0152130e-04  -1.5672521e-04  -7.4713761e-05  -6.1804137e-05  -1.6128451e-04  -2.7619019e-05  -3.7137594e-05  -3.7672633e-05  -1.0503158e-04  -2.2557359e-05  -1.2872084e-04  -1.3727872e-04  -5.4916544e-05   3.2692267e-05   4.9383724e-06  -2.8612952e-04   1.0089399e-04   3.9887331e-04   4.1551587e-04  -9.2630748e-05   4.6381425e-05   2.3595102e-04   4.6743850e-04   6.6737536e-04   6.1785080e-04   3.7734754e-04  -9.0115876e-06   3.8848913e-04   5.0464191e-04   5.2514399e-04   7.4668467e-04   9.1771586e-04   5.7656755e-04   0.0000000e+00   1.8385799e-04   2.3205478e-06  -4.5429103e-05   2.6395846e-04   2.0461659e-04   3.6662629e-05   1.4009635e-04   8.7037719e-05   2.6901357e-04   3.3415918e-04   3.5408992e-04   2.0770102e-04   8.2155285e-05   2.5865780e-04  -2.5157821e-04   3.8592191e-05   1.1222520e-05  -3.5580174e-05  -7.2410501e-05   1.0605486e-04  -1.7102725e-04  -3.4364997e-04  -3.9223935e-04   3.1131388e-04  -1.1936270e-04  -9.2633547e-05  -8.8345171e-05  -3.2527788e-04  -1.7205474e-04  -1.4960648e-04   1.1423345e-04  -2.3389701e-04  -3.1348429e-04  -3.1378786e-04  -4.4090727e-04  -9.6749859e-04  -3.1016907e-04   0.0000000e+00  -1.1150109e-04  -6.5967630e-04  -2.2114369e-04  -1.1957229e-04  -1.3823462e-04  -3.5090447e-04  -2.5190256e-04  -3.6090355e-05  -5.6996918e-04  -5.2135201e-05  -2.1825937e-04  -1.9705767e-04  -9.4607497e-05  -1.1688255e-04  -3.0917265e-04  -3.5865916e-04
   3.4068550e-05  -3.7416695e-06  -1.8628873e-05  -2.4730680e-05  -9.2893791e-06  -1.0579648e-05   9.3038150e-06  -6.1507761e-05  -6.4933449e-05  -2.4991961e-05  -3.3685747e-05  -1.1500177e-05   6.7085829e-05   4.3664480e-06  -1.7940715e-05  -5.5369004e-05  -1.0739883e-04  -4.9235485e-05  -1.7618275e-05  -3.2013489e-05  -1.0287379e-05   0.0000000e+00  -7.9391824e-06  -4.2373744e-05  -3.6645967e-05   1.4803211e-05  -1.4612619e-05  -3.8929004e-07  -1.6509117e-05   1.5692430e-05  -1.1430781e-05  -2.2126211e-05  -3.2365509e-05  -2.5568206e-05  -1.5524853e-06   3.1245966e-05   5.1135162e-05   8.2878568e-05   7.6823405e-04   4.0126086e-04   1.0528381e-05   5.4378787e-04  -1.8961388e-05  -7.5405513e-05  -5.9188838e-04  -3.8114794e-04   6.8484550e-06   1.2448990e-04   1.2597733e-04  -8.4702390e-05  -4.2770915e-04  -3.3968569e-04  -3.4479590e-04  -4.4269248e-05   1.0183605e-05  -1.0562759e-07  -9.7016155e-05  -2.8158232e-04  -9.7050893e-05   0.0000000e+00   1.3140376e-05  -1.3262812e-04   2.1785986e-04   5.8789720e-05   1.2155560e-04   2.0333448e-04   3.0137007e-05  -3.5324933e-05  -3.3588810e-04   4.0674919e-05  -2.6152287e-05   8.0949703e-06  -7.5333351e-05  -4.5083552e-04   4.9658448e-05  -1.0359393e-04   1.9083727e-03   4.9852526e-04   4.9558897e-06   1.4011040e-03  -1.3904220e-04  -3.3245631e-04  -8.8978323e-04  -8.4601078e-04  -2.7694106e-04  -6.9408614e-05  -5.2805944e-05  -6.4428400e-04  -7.7748468e-04  -2.1779961e-04  -9.5061230e-04  -1.7836105e-04  -4.0680771e-04  -3.0101715e-04  -4.0976592e-04  -9.2173229e-04  -3.4560382e-04   0.0000000e+00  -2.7883492e-04  -7.6302095e-04   3.2238103e-06  -1.4129771e-04   2.2361820e-05   5.0604896e-05  -3.0773823e-05   8.2570300e-05  -7.2690879e-04  -3.0339840e-05  -1.6592459e-04  -7.2165302e-05   1.1588938e-04  -6.8839310e-05  -3.6614630e-04  -4.4061065e-04  -1.6569368e-04  -1.0414631e-04  -1.9957888e-05  -9.5076202e-05  -4.3816375e-05  -4.9720595e-05  -3.7432742e-06   3.5211914e-05  -3.1558141e-05  -5.8472143e-05  -2.9679833e-05  -7.2957811e-05  -3.6663797e-05  -2.2583464e-05   1.0010446e-05  -5.3055077e-05  -4.6086033e-05  -2.4248263e-05  -6.9524669e-05  -7.5151830e-05  -4.5631151e-05   0.0000000e+00  -4.1385212e-05  -9.7171999e-05  -4.5554613e-05  -4.5541333e-05  -2.1867736e-05  -5.1174743e-05  -1.6687635e-05  -4.8263450e-05  -3.6444747e-05  -2.1534009e-05  -3.3871543e-05  -3.9614706e-05  -3.0748376e-05  -7.0948069e-05  -4.2647341e-05  -4.8956788e-05  -3.6096161e-05  -1.6598128e-05  -2.6423606e-05  -5.6321146e-05  -3.1919434e-05  -2.4075170e-05  -1.3756134e-05  -1.2390316e-04  -9.3024078e-05  -3.1423223e-06   5.7294385e-05   3.5031862e-05   1.8404201e-05   4.7674688e-06  -1.2492666e-04  -6.4511510e-05  -2.3022261e-05   3.7009405e-05  -1.1792481e-05  -4.8634105e-05  -3.9314390e-05   0.0000000e+00  -5.2937781e-05  -7.2490033e-05  -3.6008849e-05  -6.5810649e-05   1.2353396e-05  -2.1922353e-05  -3.5880027e-05  -1.1705941e-05  -2.0889351e-04   7.4412598e-06   2.1317851e-05  -1.0159304e-05  -4.6216614e-05  -8.8901389e-05  -2.9947316e-04  -1.2386891e-04  -5.2751950e-05  -5.1533607e-05  -1.7086905e-05  -2.0870869e-05  -3.3271230e-05  -4.2643691e-05   5.5239702e-06   4.3941869e-05  -3.8378555e-05  -2.8359029e-05  -2.4625427e-05  -2.9967296e-05  -5.6499468e-05   2.2594714e-05  -4.5626324e-06  -1.1117074e-05  -1.4783557e-05  -1.7513874e-05  -5.8028694e-05  -6.1472684e-05  -9.6987019e-06   0.0000000e+00  -3.4940352e-05  -8.8194298e-05  -1.2265837e-05  -6.4574925e-05  -8.0441563e-05  -5.4506748e-05  -1.0691739e-04  -6.2897608e-05  -6.2393772e-05  -8.1401277e-06  -2.3682104e-05  -2.5394230e-05  -5.2592291e-05  -1.2185382e-04   4.2543960e-05  -1.8674624e-05  -2.0274447e-04  -1.5237785e-04  -7.4206229e-05  -1.3590456e-04  -8.4326836e-05  -3.6082518e-05  -1.5713200e-04  -2.1034939e-05  -7.6451651e-05  -6.0993937e-05   3.1643820e-05   2.5805073e-05  -1.1793265e-04  -7.6593768e-05   6.3877088e-05  -1.8452186e-06   8.1944822e-05   2.6091969e-05  -3.3870350e-05  -8.3672387e-05   3.9690862e-05   0.0000000e+00  -3.9078516e-05  -1.7904589e-04  -2.5382729e-04  -2.0507013e-05   1.2648005e-05  -1.9260617e-04  -1.7532140e-04  -7.8542294e-05  -2.1882977e-04   2.4359075e-05  -4.6032091e-06  -1.6586914e-05  -7.2392005e-05  -9.7238024e-05  -2.0277817e-04  -1.7732506e-04  -2.7790772e-04  -2.8048189e-04  -1.2205021e-04  -2.2033872e-04  -2.0013898e-04  -1.8008192e-04  -3.8013833e-04  -2.3594257e-04  -2.3553514e-04  -2.0367201e-04  -8.4584933e-05  -1.1318715e-04  -1.3239371e-04  -1.3538918e-04  -9.1136122e-06  -1.7726218e-04  -1.9427747e-04  -6.5994582e-05  -2.0469634e-04  -2.7177080e-04   2.5962292e-05   0.0000000e+00  -1.8135443e-04  -4.5719235e-04  -4.0875580e-04  -2.3501903e-04  -2.0700407e-04  -3.4569881e-04  -1.7686702e-04  -8.8054995e-05  -3.2972889e-04  -3.0514627e-05  -9.7532158e-05  -6.4834110e-05  -1.1253512e-04  -4.0776780e-05  -2.4799552e-04  -1.6788508e-04  -1.8601779e-04  -1.4559689e-04  -1.0532287e-04  -1.9098231e-04  -1.3617597e-04  -1.5996415e-04  -1.4314682e-04  -6.0137032e-05  -1.9617655e-04  -1.0819803e-04  -8.2914571e-06  -7.7574879e-05  -5.1740264e-05   1.3225638e-05   4.3280116e-05   1.5355416e-04   3.0023378e-04  -6.1352270e-06  -1.5655616e-04  -2.9624148e-04  -1.0461477e-04   0.0000000e+00  -1.2538016e-04  -2.3290543e-04  -2.4983212e-04  -1.2695729e-04  -1.5699166e-04  -2.5682987e-04  -9.2201403e-05  -5.5502133e-05  -2.5353312e-04  -1.0575260e-04  -1.9295782e-04  -8.9351999e-05  -1.3781955e-04  -1.6696810e-05  -2.7415847e-04  -2.8185570e-04  -9.2186660e-05  -4.1834720e-05  -4.8792612e-05  -1.8352254e-04  -3.3315317e-05   6.6094463e-07  -1.2892886e-04  -1.1711216e-05  -5.6383898e-05   5.6896273e-06   9.8171242e-05   8.2411200e-05   1.8130840e-04   1.7948583e-04   9.2099193e-05   6.2033005e-05   1.6327793e-04   1.6033412e-04   7.1710906e-05  -1.9719255e-05   6.7032607e-05   0.0000000e+00  -3.8792701e-05  -2.0160552e-04  -1.1565052e-04  -1.1663456e-04  -9.1313039e-05  -1.4995177e-04  -6.5284206e-05  -6.1843720e-05  -1.4064518e-04  -3.3329785e-05  -3.4010580e-05  -2.5381047e-05  -9.8984913e-05  -1.0945226e-05  -1.1741720e-04  -1.2941870e-04  -8.4563001e-05   5.4847987e-06  -9.8813827e-06  -3.1861609e-04   8.2794613e-05   3.6146709e-04   3.7474117e-04  -1.1331596e-04   1.6663016e-05   1.9049978e-04   4.2901018e-04   6.1122470e-04   6.0981098e-04   3.7593211e-04  -4.4431539e-05   3.7429418e-04   5.0220832e-04   5.0888297e-04   7.0426659e-04   8.7253930e-04   5.3648413e-04   0.0000000e+00   1.4921580e-04  -2.5736170e-05  -6.2010533e-05   2.0935021e-04   1.6415707e-04   1.0490366e-05   1.2462169e-04   7.0701991e-05   2.6042396e-04   2.9376100e-04   3.0268392e-04   1.7488368e-04   6.2621478e-05   2.2929210e-04  -2.6687985e-04   1.1560262e-05  -1.2356128e-05  -5.1669128e-05  -8.0944813e-05   7.5248373e-05  -1.7968697e-04  -3.4321623e-04  -3.9355486e-04   3.0997950e-04  -1.3490788e-04  -1.1683604e-04  -1.0599032e-04  -3.1710269e-04  -1.6627485e-04  -1.5004161e-04   1.2412609e-04  -2.5043366e-04  -3.2354830e-04  -3.2417034e-04  -4.5099751e-04  -9.6922774e-04  -2.9820077e-04   0.0000000e+00  -1.1884735e-04  -6.5818823e-04  -2.3623700e-04  -1.1473029e-04  -1.3722217e-04  -3.6620646e-04  -2.5062047e-04  -3.4275600e-05  -5.7028004e-04  -5.2707027e-05  -2.1178806e-04  -1.8826891e-04  -9.5575559e-05  -9.8640555e-05  -2.8436843e-04  -3.3283837e-04
   1.8107571e-05  -1.8123423e-05  -2.5320030e-05  -3.6631613e-05  -1.7350436e-05  -1.7774493e-05  -8.3116901e-07  -6.3388808e-05  -7.8895414e-05  -3.3544837e-05  -3.3576169e-05  -1.6144877e-05   6.0894000e-05   3.7136169e-06  -1.6204911e-05  -6.2270306e-05  -1.0965836e-04  -4.8573775e-05  -2.6354279e-05  -4.5918988e-05  -1.0182320e-05   0.0000000e+00  -1.2870139e-05  -6.4025870e-05  -5.0113333e-05   7.3230486e-06  -2.1402922e-05  -1.6027365e-05  -3.0947775e-05   9.1456640e-06  -2.4841036e-05  -2.2421093e-05  -3.5592391e-05  -2.9269901e-05  -9.1672943e-06   2.1499301e-05   4.4017436e-05   7.5148661e-05   7.5712606e-04   4.0885527e-04   9.7620380e-06   5.2958055e-04  -1.7936849e-05  -7.1475974e-05  -5.6230168e-04  -3.8237544e-04   2.7206193e-05   1.3670253e-04   1.3140573e-04  -7.3819896e-05  -4.0885418e-04  -3.1196757e-04  -3.4695591e-04  -3.1457412e-05   3.2967137e-05   8.3971242e-06  -1.0356639e-04  -2.8542723e-04  -8.3893614e-05   0.0000000e+00   2.1809677e-05  -1.3938426e-04   2.3506824e-04   6.9097284e-05   1.3751360e-04   2.1990654e-04   3.3043235e-05  -3.5335927e-05  -3.4327942e-04   5.4597743e-05  -2.0594231e-05   3.7703376e-06  -7.1449252e-05  -4.6944073e-04   5.1197985e-05  -1.0276240e-04   1.9887706e-03   5.4998375e-04   5.3657153e-06   1.4411165e-03  -1.4005435e-04  -3.1466613e-04  -8.6953930e-04  -8.5479455e-04  -2.3121363e-04  -4.2145346e-05  -6.6203349e-06  -5.9419247e-04  -7.5712445e-04  -1.5493266e-04  -9.5115764e-04  -1.3391773e-04  -3.4227727e-04  -2.4280483e-04  -3.6102062e-04  -8.9010621e-04  -2.7836145e-04   0.0000000e+00  -2.6069302e-04  -7.7808474e-04  -6.2739956e-06  -1.0660350e-04   4.3272667e-05   5.4712218e-05  -4.6101093e-05   5.9814321e-05  -8.0124871e-04   2.3877529e-05  -1.3355830e-04  -5.7379785e-05   1.1709911e-04  -7.9374081e-05  -3.6100231e-04  -4.2538300e-04  -1.6475413e-04  -1.0369984e-04  -2.1138583e-05  -9.7887033e-05  -4.5812232e-05  -4.9840919e-05  -5.6462983e-06   3.1023979e-05  -3.0798643e-05  -5.7266602e-05  -2.3053281e-05  -6.7102088e-05  -3.9102384e-05  -2.7352851e-05   5.9227596e-06  -5.0541811e-05  -3.7787801e-05  -1.8361357e-05  -6.6580210e-05  -7.4735194e-05  -3.9566346e-05   0.0000000e+00  -3.7373867e-05  -9.9978617e-05  -5.0171830e-05  -4.0371378e-05  -1.3719710e-05  -5.2732801e-05  -1.0287577e-05  -4.9225128e-05  -3.9918801e-05  -1.7263372e-05  -2.5331240e-05  -3.4673607e-05  -3.0383665e-05  -6.7631148e-05  -5.0800808e-05  -5.2266649e-05  -3.8240357e-05  -1.3718408e-05  -2.3105250e-05  -5.4458471e-05  -3.0651806e-05  -3.0364229e-05  -7.2792694e-06  -1.2161036e-04  -8.4684652e-05  -3.7392301e-06   5.3980319e-05   2.5253077e-05   2.1433146e-05   2.7692212e-06  -1.2737725e-04  -5.9213832e-05  -1.6776634e-05   3.7600982e-05  -2.0405356e-05  -5.2664047e-05  -3.9049708e-05   0.0000000e+00  -5.0713250e-05  -5.8566731e-05  -2.8577898e-05  -6.7263797e-05   1.1862347e-05  -1.7164268e-05  -3.3870791e-05  -1.2053757e-05  -1.9071199e-04   7.9706181e-06   1.3683591e-05  -7.8911734e-06  -4.2328749e-05  -8.8561909e-05  -2.9489246e-04  -1.1860944e-04  -5.5272698e-05  -5.3172901e-05  -1.7886441e-05  -2.5567107e-05  -3.3074371e-05  -4.1838886e-05   7.0754320e-06   4.1971215e-05  -3.9390284e-05  -2.4053159e-05  -1.5233431e-05  -2.7028708e-05  -5.5599734e-05   2.3962666e-05  -5.8345437e-06  -5.9385075e-06  -5.0744269e-06  -9.2516285e-06  -5.5696742e-05  -6.0898590e-05  -4.3691402e-06   0.0000000e+00  -3.1706024e-05  -9.0210002e-05  -1.4060959e-05  -5.7811095e-05  -7.3545881e-05  -5.1614145e-05  -1.0186020e-04  -6.0177003e-05  -5.9706412e-05  -2.6698288e-06  -1.6508564e-05  -2.2181909e-05  -4.9722764e-05  -1.1526248e-04   4.3074139e-05  -1.7776853e-05  -1.8943665e-04  -1.3773077e-04  -7.1153148e-05  -1.1492894e-04  -8.1730481e-05  -3.8808220e-05  -1.6948040e-04  -2.7853435e-05  -6.8094132e-05  -6.5490892e-05   2.2321567e-05   1.6175223e-05  -1.2809286e-04  -7.7949034e-05   5.6422190e-05   2.7547994e-06   8.6702513e-05   2.2578139e-05  -3.1164415e-05  -7.5488127e-05   2.9083098e-05   0.0000000e+00  -4.2024384e-05  -1.6430529e-04  -2.4353216e-04  -3.1466131e-05   4.4542563e-06  -1.9057296e-04  -1.7637873e-04  -8.7302922e-05  -2.3386234e-04   1.9591260e-05  -1.8770111e-05  -2.3797241e-05  -7.2261756e-05  -1.1368349e-04  -2.1550347e-04  -1.8689210e-04  -2.6635046e-04  -2.7831432e-04  -1.1140751e-04  -2.0904131e-04  -1.8832904e-04  -1.7161701e-04  -3.6122434e-04  -2.1795158e-04  -2.1600978e-04  -1.9125220e-04  -8.3760232e-05  -1.0548477e-04  -1.2977025e-04  -1.3803412e-04  -3.6278121e-06  -1.6979331e-04  -1.9700040e-04  -6.5634413e-05  -2.0330606e-04  -2.6133212e-04   1.9974985e-05   0.0000000e+00  -1.7901693e-04  -4.4532607e-04  -4.0246162e-04  -2.3488724e-04  -2.0743399e-04  -3.4065565e-04  -1.7888671e-04  -9.0032794e-05  -3.2082443e-04  -3.6393304e-05  -1.0775435e-04  -6.6708058e-05  -1.0927059e-04  -4.5274241e-05  -2.4714101e-04  -1.6800246e-04  -1.8951822e-04  -1.3811947e-04  -9.5290083e-05  -1.7120684e-04  -1.3629751e-04  -1.6807435e-04  -1.4907779e-04  -5.7486223e-05  -1.8298449e-04  -1.0532141e-04  -2.4870003e-05  -9.1983229e-05  -5.2686589e-05   7.4859223e-06   5.2478623e-05   1.5488405e-04   3.0993155e-04  -1.7260500e-05  -1.7156072e-04  -3.1318109e-04  -1.1464148e-04   0.0000000e+00  -1.2747704e-04  -2.0692685e-04  -2.3011308e-04  -1.4375051e-04  -1.6525408e-04  -2.4056950e-04  -9.2037540e-05  -5.9970936e-05  -2.5453914e-04  -1.2170885e-04  -2.2408166e-04  -8.8039587e-05  -1.2997249e-04  -1.8122638e-05  -2.9716358e-04  -2.9537871e-04  -1.0898660e-04  -5.4153883e-05  -4.9795497e-05  -1.9284599e-04  -3.3771770e-05  -6.8675423e-07  -1.3469774e-04  -2.3266432e-05  -5.5500642e-05   4.3714006e-06   9.9235219e-05   7.7382631e-05   1.7589586e-04   1.6545256e-04   8.5962630e-05   6.3729768e-05   1.7427845e-04   1.6426609e-04   7.0776474e-05  -2.0981011e-05   6.0294632e-05   0.0000000e+00  -3.5335760e-05  -1.9181146e-04  -1.1549872e-04  -1.0896233e-04  -7.8386316e-05  -1.4078452e-04  -5.5687117e-05  -6.0319983e-05  -1.2158793e-04  -3.7180535e-05  -3.0813436e-05  -1.4161705e-05  -9.1551919e-05   9.9522021e-08  -1.0780069e-04  -1.2166561e-04  -1.1416997e-04  -2.1095686e-05  -2.3999035e-05  -3.4909014e-04   6.4155633e-05   3.1971979e-04   3.3142265e-04  -1.3641651e-04  -1.1939645e-05   1.4636518e-04   3.8764827e-04   5.4654766e-04   6.0057843e-04   3.7379332e-04  -8.1485582e-05   3.6152520e-04   4.9765186e-04   4.8726716e-04   6.5456515e-04   8.1457794e-04   4.8802035e-04   0.0000000e+00   1.1588005e-04  -5.2109931e-05  -7.7336247e-05   1.5617932e-04   1.2424555e-04  -1.3379817e-05   1.1370379e-04   5.9576023e-05   2.5289774e-04   2.5151548e-04   2.5341903e-04   1.4256093e-04   4.6528049e-05   2.0317912e-04  -2.8242339e-04  -1.4827868e-05  -3.1515519e-05  -6.2954006e-05  -8.8420827e-05   5.0453470e-05  -1.8716390e-04  -3.4262487e-04  -3.9379402e-04   3.0792174e-04  -1.4902488e-04  -1.4063451e-04  -1.2617968e-04  -3.1214240e-04  -1.5893146e-04  -1.4903401e-04   1.3487916e-04  -2.6656648e-04  -3.3254873e-04  -3.3501390e-04  -4.6088241e-04  -9.7054222e-04  -2.8597351e-04   0.0000000e+00  -1.2921865e-04  -6.5750019e-04  -2.4924207e-04  -1.1351614e-04  -1.3937491e-04  -3.8111019e-04  -2.5250161e-04  -3.3124768e-05  -5.7162063e-04  -5.5031986e-05  -2.0915625e-04  -1.8407190e-04  -9.8232884e-05  -8.4801051e-05  -2.6236075e-04  -3.1014102e-04
