   2.2686450e-04   2.0203512e-04   7.4923292e-05   0.0000000e+00   0.0000000e+00   6.9346876e-06   0.0000000e+00  -5.0460460e-05  -3.0538778e-05   1.0791815e-04   7.2787626e-05   0.0000000e+00   1.9392600e-05  -4.5450077e-05  -8.1136764e-05  -6.3524424e-05   5.0786072e-05   5.8107154e-05   6.5901020e-05   7.1652839e-05   7.2912978e-05   0.0000000e+00   6.0844422e-05   1.8412163e-04   0.0000000e+00   2.2887500e-04   8.2844561e-05   2.1902917e-04   2.6547792e-04  -1.2079772e-04   3.4851024e-04   8.0911397e-05   1.7747492e-05   1.8566529e-05   6.5770485e-05  -9.9954585e-05   3.3006285e-05   2.1268629e-04  -4.6621668e-04   1.9804039e-04  -9.6368095e-05   0.0000000e+00   0.0000000e+00   6.6608634e-05   0.0000000e+00  -1.1835577e-05   4.4431344e-05   2.4903918e-04   2.8449197e-05   0.0000000e+00   1.1153586e-04  -3.4512490e-05  -1.3095873e-04   2.9542261e-05  -1.6782553e-04   1.5156265e-06   1.5518613e-04   3.8996307e-04   4.3141916e-04   0.0000000e+00   2.7189585e-04   3.4435396e-04   0.0000000e+00   4.7216619e-04   9.9663629e-05   5.1436519e-04   2.1479828e-04  -3.9400512e-04  -1.4940075e-05   2.3907982e-04   2.4673214e-04  -5.2382319e-05  -2.7930686e-05  -3.2711645e-04  -4.1188614e-05   8.1497152e-07   2.2679908e-04   1.6925409e-04   6.3727251e-06   0.0000000e+00   0.0000000e+00  -3.2715944e-05   0.0000000e+00  -7.2149896e-05  -6.2406825e-05   4.3826566e-05   2.0876241e-05   0.0000000e+00  -1.8957591e-04  -1.0880027e-04  -1.6440529e-05  -8.3295369e-05  -2.6941251e-05   5.8687571e-06   2.3518793e-06  -5.6784429e-06   3.5779565e-05   0.0000000e+00   6.5699569e-05   1.9578892e-04   0.0000000e+00   3.8166586e-05   1.8112502e-05   5.6677180e-05   2.6350482e-05  -3.9546314e-05   2.8233742e-04  -7.1811034e-07   4.0308718e-05   3.0394054e-05   5.7564919e-05  -2.3534606e-05   1.8487729e-04   1.4546963e-04   1.1800105e-05   1.8775542e-05   2.6739379e-04   0.0000000e+00   0.0000000e+00  -4.6262898e-05   0.0000000e+00   1.9600332e-04   4.9864929e-05   8.9320127e-06   8.6545863e-05   0.0000000e+00   4.0807876e-05   1.2066541e-04   5.1881485e-05   1.1335269e-04   6.7664726e-05   1.0810753e-05   1.8273759e-05  -5.0555729e-05  -1.0026879e-04   0.0000000e+00  -1.1537694e-04  -3.1443417e-05   0.0000000e+00  -2.5773366e-04  -1.7780282e-05  -1.6047749e-04  -4.4607565e-04   4.0252910e-04  -1.2571662e-04  -6.6875041e-05  -2.6875799e-05   6.5853513e-06  -2.5549148e-05   2.8530130e-04   1.6611724e-04  -3.6552130e-05   6.9824015e-05   8.9504706e-05  -8.0536022e-06   0.0000000e+00   0.0000000e+00   3.4329928e-05   0.0000000e+00  -1.5821883e-05  -9.7047111e-05   2.2374310e-05   6.4832278e-05   0.0000000e+00   1.2658248e-04   3.6527834e-05  -8.8623032e-05  -1.4490691e-05  -1.3665461e-05   4.6273258e-05   6.1944503e-05   3.7094608e-05   7.1663543e-05   0.0000000e+00   4.1234904e-05   5.5568958e-05   0.0000000e+00   6.9104575e-05   3.9190063e-05   5.2769607e-05  -1.2112167e-04  -3.5106909e-05  -8.0913716e-05   5.0243353e-05   2.7988732e-07  -4.3331069e-05  -7.3921003e-05  -7.0148154e-05  -5.5755509e-05   3.1771623e-05   1.4486767e-04   6.3997340e-05   1.4816009e-04   0.0000000e+00   0.0000000e+00   2.4513051e-05   0.0000000e+00   7.3799293e-05  -1.0543493e-04  -2.3028446e-06   1.4665391e-04   0.0000000e+00   5.4985134e-05   1.2752772e-04  -6.0560975e-06  -6.5586637e-05   9.5146925e-06   4.0831547e-05   2.8756730e-05  -4.3957571e-05  -3.1171299e-05   0.0000000e+00  -4.2191128e-05   3.2387801e-05   0.0000000e+00  -9.8351824e-05   4.5333098e-05  -9.9558366e-05  -5.3498524e-04   1.9914755e-04  -1.4633260e-04   2.0812238e-06   3.9675031e-07  -4.6312921e-05  -1.5387232e-04   8.6988186e-05   9.7289410e-05  -2.7889738e-05  -2.5344661e-04  -1.0086175e-04  -2.5308057e-04   0.0000000e+00   0.0000000e+00  -4.7268411e-05   0.0000000e+00  -2.8063267e-04  -3.8422886e-04  -1.7223794e-04  -1.6362736e-04   0.0000000e+00  -6.5868813e-05  -5.7353764e-05  -1.2864996e-04  -3.0264841e-04  -3.1457266e-04  -8.7904841e-05  -1.0928408e-04  -1.2265563e-04  -8.7725467e-05   0.0000000e+00  -1.1114773e-04  -1.9826584e-04   0.0000000e+00  -2.2681556e-04  -1.1514671e-04  -1.6572097e-04  -7.4068369e-04   2.6450015e-04  -6.8235015e-04  -9.1592816e-05  -4.7698511e-05  -1.6020131e-04  -2.7438720e-04   7.4671698e-06  -4.0030054e-04  -2.6908192e-04   1.2459437e-04  -1.7060239e-04  -2.2999567e-05   0.0000000e+00   0.0000000e+00   2.9427431e-06   0.0000000e+00   1.1697448e-04   1.0070745e-04   5.2602110e-05   6.5522945e-06   0.0000000e+00   1.9351502e-04   1.9750207e-04   2.8466100e-05  -3.3667951e-05   5.7078058e-05  -2.2449054e-05  -2.0851336e-05  -1.1854532e-05  -8.3015130e-05   0.0000000e+00  -1.3426176e-04  -1.4679930e-04   0.0000000e+00  -2.2442383e-04  -8.7446051e-05  -2.2045556e-04  -3.6839208e-04   2.9098179e-04  -1.0052725e-04  -1.4871278e-04  -1.1514906e-04  -3.5153423e-05  -1.3390583e-04   1.7370583e-04   2.2908287e-04  -1.1246800e-04  -5.5200298e-04  -2.0096062e-04   2.4273181e-04   0.0000000e+00   0.0000000e+00  -7.9234414e-05   0.0000000e+00   1.6272653e-04  -1.5144239e-04  -2.3664073e-04  -1.5835769e-04   0.0000000e+00  -1.5918499e-04   1.6010170e-04   1.9879578e-04   1.1949271e-04   5.7914499e-05  -3.3552855e-05  -6.7891083e-05  -1.7514500e-04  -1.5090862e-04   0.0000000e+00  -1.2693805e-04  -3.0585004e-04   0.0000000e+00  -2.9039552e-04   7.9377617e-06  -6.1426603e-05  -4.7710518e-04   8.4443497e-04  -2.4533314e-04  -1.6723617e-04  -5.0970089e-05   1.9007492e-05  -1.0528819e-04   4.4025512e-04   1.9967179e-04  -5.9784715e-05   5.0594068e-04   6.4168386e-05   7.7882796e-04   0.0000000e+00   0.0000000e+00  -2.4410212e-04   0.0000000e+00  -7.9570484e-05  -9.3114143e-05   5.0456933e-05   1.3404948e-05   0.0000000e+00  -7.9409141e-05   4.6938160e-05  -1.9752756e-05  -1.3872889e-04   7.6928148e-05  -6.2144930e-05  -4.6171678e-05  -2.1812686e-04  -3.8531043e-04   0.0000000e+00  -3.3888173e-04   2.5272828e-04   0.0000000e+00  -4.1871973e-04  -6.4912835e-05  -3.6381529e-04  -1.0267644e-03   5.2458804e-04   7.8581698e-05  -3.1936334e-04  -1.8274423e-04  -1.3960514e-04  -4.2214181e-04   2.4796841e-04   1.2031254e-04  -2.5438242e-04  -4.0363502e-04  -5.1088935e-04  -2.2771678e-04   0.0000000e+00   0.0000000e+00  -2.1281810e-04   0.0000000e+00  -1.6080081e-04  -1.8225270e-04  -2.6671440e-04  -2.2079370e-04   0.0000000e+00  -3.5845395e-05  -5.5024570e-05  -1.1002976e-05  -1.2906187e-04  -2.0581277e-04  -2.2650114e-04  -2.7115118e-04  -3.3859678e-04  -3.7896700e-04   0.0000000e+00  -3.2517925e-04  -3.1815500e-04   0.0000000e+00  -4.1305158e-04  -2.7622797e-04  -3.0611945e-04  -7.3847449e-04   7.1501830e-06  -7.6659255e-04  -3.1072374e-04  -2.9298672e-04  -2.0249673e-04  -3.9324395e-04  -6.7598165e-05  -2.6375328e-04  -4.6728303e-04
   2.4825455e-04   2.2435231e-04   8.7056608e-05   0.0000000e+00   0.0000000e+00   1.1247776e-05   0.0000000e+00  -4.7734763e-05  -3.2369760e-05   1.2196446e-04   8.8857620e-05   0.0000000e+00   2.9928665e-05  -4.1569056e-05  -8.6359610e-05  -6.7548264e-05   5.9665590e-05   6.4436085e-05   7.4023082e-05   7.8666677e-05   8.0765945e-05   0.0000000e+00   6.3540501e-05   2.0476753e-04   0.0000000e+00   2.4758968e-04   9.2349061e-05   2.3311714e-04   2.6932124e-04  -1.1382021e-04   3.7721783e-04   9.0309276e-05   2.0307263e-05   1.8618070e-05   6.0152382e-05  -1.0193832e-04   4.4326416e-05   2.3004177e-04  -4.9355041e-04   1.9773521e-04  -1.1052319e-04   0.0000000e+00   0.0000000e+00   9.4833070e-05   0.0000000e+00  -9.3334185e-06   2.8172361e-05   2.6711233e-04   2.5982655e-05   0.0000000e+00   1.1411181e-04  -1.9610526e-05  -1.3626681e-04   5.9326197e-05  -2.0079542e-04   1.9211893e-07   1.7334355e-04   4.3660333e-04   4.8457758e-04   0.0000000e+00   2.9819638e-04   3.7761112e-04   0.0000000e+00   4.9656657e-04   1.1373952e-04   5.3085812e-04   1.5190430e-04  -4.3823580e-04  -9.2925316e-05   2.6063429e-04   2.7985946e-04  -5.5428961e-05  -5.2123624e-05  -3.5032055e-04  -5.7951113e-05  -3.9327349e-05   2.2249456e-04   1.9588359e-04  -4.9774486e-06   0.0000000e+00   0.0000000e+00  -4.0605098e-05   0.0000000e+00  -4.2782690e-05  -4.4919701e-05   5.1134989e-05   2.9735927e-05   0.0000000e+00  -1.8730232e-04  -7.9527142e-05  -9.8790049e-06  -9.9172128e-05  -2.5680950e-05   3.5010259e-06   1.6414039e-06   1.4362795e-06   4.9216273e-05   0.0000000e+00   7.7830133e-05   2.1407887e-04   0.0000000e+00   6.7080732e-05   2.5351440e-05   7.9515800e-05   1.0902614e-04  -3.0552066e-05   4.5082835e-04   1.1826572e-05   6.2993757e-05   4.0518956e-05   8.2159169e-05  -1.2718211e-05   2.7906055e-04   2.3344725e-04   3.3283343e-05   9.4211267e-06   3.0858806e-04   0.0000000e+00   0.0000000e+00  -5.5229447e-05   0.0000000e+00   2.2958715e-04   5.5206867e-05   2.5075676e-06   8.7836975e-05   0.0000000e+00   5.5679386e-05   1.4075699e-04   6.8482464e-05   1.3620786e-04   6.6605858e-05   3.5882419e-06   1.0914259e-05  -6.4330483e-05  -1.2407170e-04   0.0000000e+00  -1.4122561e-04  -3.8944723e-05   0.0000000e+00  -3.0499747e-04  -3.3026085e-05  -1.9769364e-04  -4.9528601e-04   4.4636774e-04  -1.3315303e-04  -8.9154166e-05  -4.0285639e-05   3.9957074e-06  -3.6872133e-05   3.1234359e-04   1.9018271e-04  -3.9986133e-05   5.2847279e-05   1.0466319e-04   5.6787142e-06   0.0000000e+00   0.0000000e+00   4.4352929e-05   0.0000000e+00  -9.0168093e-07  -1.2146572e-04   1.2913546e-05   7.7981060e-05   0.0000000e+00   1.3976464e-04   5.0454403e-05  -8.0221736e-05  -2.5323317e-05  -2.5723984e-05   5.5594883e-05   7.1906853e-05   3.9039607e-05   7.9365595e-05   0.0000000e+00   4.0768938e-05   5.1557519e-05   0.0000000e+00   5.0579125e-05   3.8498520e-05   3.8300978e-05  -1.7268220e-04  -2.4466094e-05  -1.2602280e-04   4.9650609e-05   2.7306599e-06  -5.1715211e-05  -9.4559498e-05  -6.4431746e-05  -6.2148949e-05   2.6800518e-05   1.3774802e-04   4.0760238e-05   1.4756315e-04   0.0000000e+00   0.0000000e+00   2.8322609e-05   0.0000000e+00   8.5383507e-05  -1.1349390e-04  -2.5348143e-05   1.4539905e-04   0.0000000e+00   6.0100218e-05   1.3507668e-04   4.1194637e-06  -6.8891927e-05  -9.4955392e-06   3.5141856e-05   2.0924602e-05  -5.8062495e-05  -4.5116039e-05   0.0000000e+00  -6.1333647e-05   8.4527063e-06   0.0000000e+00  -1.3890614e-04   3.2503318e-05  -1.4002584e-04  -6.1077303e-04   2.0998305e-04  -2.1030365e-04  -1.0549360e-05  -3.8060766e-06  -5.6292448e-05  -1.8581014e-04   9.2306093e-05   9.4785036e-05  -5.7146019e-05  -2.9152254e-04  -1.1593457e-04  -2.8441592e-04   0.0000000e+00   0.0000000e+00  -5.6343059e-05   0.0000000e+00  -3.1666720e-04  -4.3077927e-04  -1.9039808e-04  -1.8057411e-04   0.0000000e+00  -8.3673343e-05  -6.2919639e-05  -1.5592758e-04  -3.4312800e-04  -3.4768176e-04  -1.0220889e-04  -1.2908146e-04  -1.4404420e-04  -1.0109447e-04   0.0000000e+00  -1.2676004e-04  -2.2322922e-04   0.0000000e+00  -2.5306364e-04  -1.3737666e-04  -1.8196912e-04  -7.8969884e-04   2.5145468e-04  -7.3855709e-04  -1.0772946e-04  -6.0427689e-05  -1.8436625e-04  -3.1786221e-04  -1.8167950e-05  -4.4070312e-04  -3.0246229e-04   1.1131455e-04  -2.2657729e-04  -2.8295694e-05   0.0000000e+00   0.0000000e+00   1.2112810e-06   0.0000000e+00   1.3985121e-04   1.1121309e-04   5.2721924e-05   1.4617714e-06   0.0000000e+00   2.0934653e-04   2.1918330e-04   3.9521729e-05  -3.4802072e-05   6.1709770e-05  -3.3404241e-05  -3.2502340e-05  -2.6911365e-05  -1.0957259e-04   0.0000000e+00  -1.7110321e-04  -1.9505349e-04   0.0000000e+00  -2.9152752e-04  -1.1314392e-04  -2.8122507e-04  -4.2022533e-04   3.5063563e-04  -1.2694187e-04  -1.8753040e-04  -1.3744839e-04  -4.0465900e-05  -1.5628407e-04   2.1639897e-04   2.5395400e-04  -1.4443856e-04  -5.9782952e-04  -2.2769635e-04   3.0268759e-04   0.0000000e+00   0.0000000e+00  -8.8784312e-05   0.0000000e+00   2.1330373e-04  -1.5588839e-04  -2.5301350e-04  -1.7386997e-04   0.0000000e+00  -1.7275099e-04   1.8633193e-04   2.3351120e-04   1.2606761e-04   5.3587007e-05  -4.3311021e-05  -8.3987101e-05  -2.0497913e-04  -1.8166048e-04   0.0000000e+00  -1.5787477e-04  -3.5358935e-04   0.0000000e+00  -3.4833004e-04  -6.6764648e-06  -9.8302437e-05  -5.2904242e-04   9.2649503e-04  -2.6599119e-04  -1.9881982e-04  -6.1493204e-05   2.4055268e-05  -1.2583366e-04   4.9091356e-04   2.2532849e-04  -6.1546516e-05   6.0588540e-04   5.4086654e-05   8.6585344e-04   0.0000000e+00   0.0000000e+00  -2.6254290e-04   0.0000000e+00  -8.8333024e-05  -1.0324771e-04   3.1511483e-05   7.7242741e-06   0.0000000e+00  -8.4466164e-05   6.0218929e-05  -1.0538486e-05  -1.6666797e-04   6.8149361e-05  -6.9841695e-05  -5.7759973e-05  -2.4778302e-04  -4.3739256e-04   0.0000000e+00  -3.7683687e-04   3.1479280e-04   0.0000000e+00  -4.8463177e-04  -7.2435665e-05  -4.2614555e-04  -1.1076081e-03   5.6631685e-04   9.8473620e-05  -3.5494253e-04  -1.9596426e-04  -1.5537496e-04  -4.6803730e-04   2.6961399e-04   1.3128727e-04  -2.7481932e-04  -4.4944067e-04  -5.5239339e-04  -2.4456120e-04   0.0000000e+00   0.0000000e+00  -2.2997626e-04   0.0000000e+00  -1.7804950e-04  -2.0364155e-04  -3.0037009e-04  -2.4529381e-04   0.0000000e+00  -4.5941504e-05  -5.7793167e-05  -1.2757023e-05  -1.2857990e-04  -2.1889143e-04  -2.5323118e-04  -2.9544870e-04  -3.7241712e-04  -4.1644562e-04   0.0000000e+00  -3.3813651e-04  -3.4129203e-04   0.0000000e+00  -4.3752263e-04  -2.9334456e-04  -3.2174950e-04  -7.4887136e-04   2.6895961e-05  -7.9903585e-04  -3.2919309e-04  -3.0920307e-04  -2.0786764e-04  -3.9291595e-04  -5.6872591e-05  -2.6875943e-04  -4.9243338e-04
   2.6260632e-04   2.4162380e-04   9.8023861e-05   0.0000000e+00   0.0000000e+00   1.6100736e-05   0.0000000e+00  -4.3178316e-05  -3.4115754e-05   1.3359243e-04   1.0467272e-04   0.0000000e+00   4.1195903e-05  -3.5397276e-05  -8.9335792e-05  -6.9976599e-05   6.7925973e-05   6.9635678e-05   8.0932411e-05   8.3964066e-05   8.6793192e-05   0.0000000e+00   6.4111993e-05   2.2106183e-04   0.0000000e+00   2.5972378e-04   1.0023273e-04   2.4005739e-04   2.6233453e-04  -1.0041355e-04   3.9602736e-04   9.7790805e-05   2.2405659e-05   1.8016509e-05   5.1094986e-05  -9.9780499e-05   5.5940387e-05   2.4162365e-04  -5.0797143e-04   1.9177702e-04  -1.3214704e-04   0.0000000e+00   0.0000000e+00   1.2584650e-04   0.0000000e+00  -7.4458978e-06   3.3924093e-06   2.7704240e-04   2.0243172e-05   0.0000000e+00   1.1103384e-04  -2.0167365e-06  -1.4112029e-04   8.7180819e-05  -2.3537208e-04   3.2846674e-07   1.8864855e-04   4.7563284e-04   5.3105773e-04   0.0000000e+00   3.2218696e-04   4.0470950e-04   0.0000000e+00   5.0697122e-04   1.2652288e-04   5.3100733e-04   6.7808600e-05  -4.7657131e-04  -1.9113605e-04   2.7850686e-04   3.1076259e-04  -5.7982334e-05  -7.9188892e-05  -3.6712346e-04  -8.1013978e-05  -9.0478667e-05   2.0722297e-04   2.2585133e-04  -2.0475035e-05   0.0000000e+00   0.0000000e+00  -4.5370537e-05   0.0000000e+00  -5.6422020e-09  -2.0014651e-05   5.9795736e-05   4.1191093e-05   0.0000000e+00  -1.7479398e-04  -3.1319463e-05  -1.7050813e-06  -1.1342741e-04  -2.3354142e-05   1.9463902e-06   3.1162987e-06   1.1711049e-05   6.6116012e-05   0.0000000e+00   9.2253060e-05   2.3267186e-04   0.0000000e+00   1.0375179e-04   3.6454842e-05   1.0719031e-04   2.0555956e-04  -1.6564300e-05   6.4743287e-04   2.8560401e-05   9.0124406e-05   5.1174385e-05   1.0605242e-04   1.2415718e-06   3.8776964e-04   3.3775363e-04   5.6240204e-05  -3.2055285e-06   3.4696388e-04   0.0000000e+00   0.0000000e+00  -6.3774733e-05   0.0000000e+00   2.6041104e-04   6.1343188e-05  -4.9719223e-06   8.6466700e-05   0.0000000e+00   7.1066010e-05   1.5921669e-04   8.5724846e-05   1.5907637e-04   6.4513512e-05  -5.6026766e-06   1.4091812e-06  -7.8597654e-05  -1.4850617e-04   0.0000000e+00  -1.6711910e-04  -4.7376106e-05   0.0000000e+00  -3.4924602e-04  -4.9806251e-05  -2.3487707e-04  -5.2987235e-04   4.8207200e-04  -1.3254527e-04  -1.1213133e-04  -5.5282599e-05   1.6444825e-06  -4.7768629e-05   3.3356274e-04   2.1285447e-04  -4.1933393e-05   3.2840866e-05   1.1954621e-04   2.0749003e-05   0.0000000e+00   0.0000000e+00   5.4163356e-05   0.0000000e+00   1.5072383e-05  -1.4799225e-04   1.1405528e-06   9.0575450e-05   0.0000000e+00   1.5038631e-04   6.4228031e-05  -6.9054597e-05  -4.0690445e-05  -3.9793704e-05   6.4235999e-05   8.0593714e-05   3.9545285e-05   8.4841082e-05   0.0000000e+00   3.8211979e-05   4.7084922e-05   0.0000000e+00   2.8083815e-05   3.6306194e-05   2.0033408e-05  -2.2688037e-04  -1.3591209e-05  -1.7587037e-04   4.6121692e-05   4.2337409e-06  -6.0354118e-05  -1.1740396e-04  -5.7808198e-05  -6.8459309e-05   1.9024141e-05   1.2051432e-04   1.0520351e-05   1.3826437e-04   0.0000000e+00   0.0000000e+00   3.3082633e-05   0.0000000e+00   9.3042828e-05  -1.1929852e-04  -5.1686893e-05   1.3801423e-04   0.0000000e+00   6.2941089e-05   1.3680561e-04   1.5143578e-05  -7.0275265e-05  -3.2201438e-05   2.7175300e-05   1.1321754e-05  -7.1601673e-05  -5.9418844e-05   0.0000000e+00  -8.1930807e-05  -2.1580709e-05   0.0000000e+00  -1.8006250e-04   1.6230482e-05  -1.8192885e-04  -6.7430921e-04   2.1152935e-04  -2.7758474e-04  -2.4433534e-05  -8.2394224e-06  -6.5636511e-05  -2.1647280e-04   9.2715276e-05   8.6167204e-05  -8.8843477e-05  -3.2818702e-04  -1.3094485e-04  -3.0989919e-04   0.0000000e+00   0.0000000e+00  -6.5875742e-05   0.0000000e+00  -3.4730841e-04  -4.6898870e-04  -2.0410971e-04  -1.9493591e-04   0.0000000e+00  -1.0213725e-04  -6.5696115e-05  -1.8521069e-04  -3.7948759e-04  -3.7238145e-04  -1.1650782e-04  -1.4921721e-04  -1.6493757e-04  -1.1295659e-04   0.0000000e+00  -1.4027623e-04  -2.4525993e-04   0.0000000e+00  -2.7301787e-04  -1.5924550e-04  -1.9364069e-04  -8.0946395e-04   2.1554940e-04  -7.7196957e-04  -1.2322946e-04  -7.4438716e-05  -2.0657026e-04  -3.5735157e-04  -5.4278760e-05  -4.7549652e-04  -3.2805443e-04   9.2023536e-05  -2.8490324e-04  -3.2352330e-05   0.0000000e+00   0.0000000e+00  -1.4583903e-06   0.0000000e+00   1.6245376e-04   1.1891563e-04   5.0395129e-05  -5.0752072e-06   0.0000000e+00   2.2082908e-04   2.3999865e-04   5.2751971e-05  -3.3675345e-05   6.4290220e-05  -4.5284621e-05  -4.5631561e-05  -4.4682210e-05  -1.3713487e-04   0.0000000e+00  -2.0837422e-04  -2.4917170e-04   0.0000000e+00  -3.6210267e-04  -1.4066288e-04  -3.4301100e-04  -4.7103335e-04   4.1035229e-04  -1.5487204e-04  -2.2693060e-04  -1.5905259e-04  -4.6195156e-05  -1.7741799e-04   2.5975941e-04   2.7470333e-04  -1.7402138e-04  -6.2707939e-04  -2.5196578e-04   3.6385934e-04   0.0000000e+00   0.0000000e+00  -9.8139512e-05   0.0000000e+00   2.6888038e-04  -1.5405244e-04  -2.6124473e-04  -1.8532061e-04   0.0000000e+00  -1.8297818e-04   2.1033134e-04   2.6568425e-04   1.3012265e-04   4.7816576e-05  -5.3002232e-05  -1.0074256e-04  -2.3399152e-04  -2.1213475e-04   0.0000000e+00  -1.8836441e-04  -3.9427980e-04   0.0000000e+00  -4.0619547e-04  -2.3608811e-05  -1.3913075e-04  -5.7501533e-04   9.9532620e-04  -2.7829659e-04  -2.3034141e-04  -7.3086293e-05   3.0283866e-05  -1.4418150e-04   5.3431703e-04   2.5090979e-04  -5.7831572e-05   7.0067816e-04   4.1342347e-05   9.3666796e-04   0.0000000e+00   0.0000000e+00  -2.7418546e-04   0.0000000e+00  -9.6001036e-05  -1.1260873e-04   8.8017534e-06  -2.3458155e-06   0.0000000e+00  -8.8451577e-05   7.4284272e-05   2.0443387e-07  -1.9351856e-04   5.5474520e-05  -7.5900725e-05  -6.8725525e-05  -2.7216218e-04  -4.8135062e-04   0.0000000e+00  -4.0445242e-04   3.7802594e-04   0.0000000e+00  -5.4031947e-04  -7.7628686e-05  -4.8161666e-04  -1.1527693e-03   5.9513769e-04   1.2621196e-04  -3.8303078e-04  -2.0353231e-04  -1.6777119e-04  -5.0326327e-04   2.8336647e-04   1.3770169e-04  -2.8636303e-04  -4.9161151e-04  -5.8617265e-04  -2.5434787e-04   0.0000000e+00   0.0000000e+00  -2.4253662e-04   0.0000000e+00  -1.9170775e-04  -2.2065336e-04  -3.2899212e-04  -2.6638202e-04   0.0000000e+00  -5.7562943e-05  -5.8575230e-05  -1.4667181e-05  -1.2346612e-04  -2.2702873e-04  -2.7687139e-04  -3.1440447e-04  -4.0025487e-04  -4.4778324e-04   0.0000000e+00  -3.4402891e-04  -3.6007374e-04   0.0000000e+00  -4.5356339e-04  -3.0516722e-04  -3.3063413e-04  -7.4030762e-04   4.9884567e-05  -8.1849935e-04  -3.4089273e-04  -3.1846446e-04  -2.0785950e-04  -3.8105017e-04  -4.2214725e-05  -2.6811127e-04  -5.1080317e-04
   2.6900788e-04   2.5307154e-04   1.0784305e-04   0.0000000e+00   0.0000000e+00   2.1343829e-05   0.0000000e+00  -3.7015794e-05  -3.5864189e-05   1.4232831e-04   1.1971196e-04   0.0000000e+00   5.2758705e-05  -2.7176202e-05  -8.9941553e-05  -7.0751426e-05   7.5346698e-05   7.3550167e-05   8.6382994e-05   8.7289375e-05   9.0666437e-05   0.0000000e+00   6.2394178e-05   2.3228303e-04   0.0000000e+00   2.6458082e-04   1.0620482e-04   2.3935856e-04   2.4461146e-04  -8.0810387e-05   4.0431385e-04   1.0300511e-04   2.3886416e-05   1.6804495e-05   3.8942148e-05  -9.3387047e-05   6.7542538e-05   2.4705166e-04  -5.1040199e-04   1.8182997e-04  -1.6239888e-04   0.0000000e+00   0.0000000e+00   1.5874966e-04   0.0000000e+00  -5.9465103e-06  -2.9886598e-05   2.7862772e-04   1.1149622e-05   0.0000000e+00   1.0272490e-04   1.7519257e-05  -1.4623597e-04   1.1020578e-04  -2.7103013e-04   2.6475236e-06   2.0089219e-04   5.0612612e-04   5.7026237e-04   0.0000000e+00   3.4463639e-04   4.2603063e-04   0.0000000e+00   5.0380097e-04   1.3765538e-04   5.1654291e-04  -3.4342917e-05  -5.0802779e-04  -3.0703398e-04   2.9317617e-04   3.3931969e-04  -6.0165046e-05  -1.0780744e-04  -3.7784907e-04  -1.1011348e-04  -1.5135691e-04   1.8149786e-04   2.5923121e-04  -4.0229740e-05   0.0000000e+00   0.0000000e+00  -4.6178692e-05   0.0000000e+00   5.5645675e-05   1.1472376e-05   6.9402997e-05   5.4924303e-05   0.0000000e+00  -1.5256134e-04   3.6108601e-05   7.8208880e-06  -1.2516945e-04  -2.0315805e-05   1.5743596e-06   7.0614757e-06   2.4767744e-05   8.6203379e-05   0.0000000e+00   1.0877082e-04   2.5255490e-04   0.0000000e+00   1.4738383e-04   5.1537815e-05   1.3888689e-04   3.1032846e-04   2.1465530e-06   8.6409319e-04   4.8838291e-05   1.2038022e-04   6.1635939e-05   1.2660663e-04   1.7589223e-05   5.0714866e-04   4.5488886e-04   7.9222977e-05  -1.8616821e-05   3.8154849e-04   0.0000000e+00   0.0000000e+00  -7.1702125e-05   0.0000000e+00   2.8758762e-04   6.8725612e-05  -1.3102306e-05   8.2587089e-05   0.0000000e+00   8.6335846e-05   1.7554781e-04   1.0288793e-04   1.8126970e-04   6.2002554e-05  -1.6484081e-05  -9.9230055e-06  -9.2952439e-05  -1.7280236e-04   0.0000000e+00  -1.9210915e-04  -5.6627403e-05   0.0000000e+00  -3.8888656e-04  -6.7378534e-05  -2.7072394e-04  -5.4774382e-04   5.0897863e-04  -1.2281256e-04  -1.3489990e-04  -7.1419725e-05  -1.5235466e-07  -5.7459513e-05   3.4882050e-04   2.3372634e-04  -4.1995987e-05   1.1123123e-05   1.3358139e-04   3.6321823e-05   0.0000000e+00   0.0000000e+00   6.3329954e-05   0.0000000e+00   3.0856474e-05  -1.7602646e-04  -1.2398816e-05   1.0211443e-04   0.0000000e+00   1.5800210e-04   7.6973445e-05  -5.6180193e-05  -6.0625033e-05  -5.5417588e-05   7.1789778e-05   8.7574599e-05   3.8521463e-05   8.7692790e-05   0.0000000e+00   3.3606972e-05   4.2823632e-05   0.0000000e+00   2.9880853e-06   3.2894277e-05  -1.2135224e-06  -2.8137130e-04  -3.2746324e-06  -2.2873669e-04   3.9712954e-05   4.4578162e-06  -6.9023107e-05  -1.4189145e-04  -5.1158155e-05  -7.4737804e-05   8.5996966e-06   9.2608156e-05  -2.5764095e-05   1.2005426e-04   0.0000000e+00   0.0000000e+00   3.8889701e-05   0.0000000e+00   9.5637769e-05  -1.2296116e-04  -8.0219445e-05   1.2502202e-04   0.0000000e+00   6.3014084e-05   1.3227248e-04   2.6241917e-05  -6.9780577e-05  -5.7620574e-05   1.7310989e-05   4.6093797e-07  -8.3910700e-05  -7.3450581e-05   0.0000000e+00  -1.0341246e-04  -5.6906719e-05   0.0000000e+00  -2.1996384e-04  -2.7535656e-06  -2.2355393e-04  -7.2312648e-04   2.0323459e-04  -3.4560345e-04  -3.8875601e-05  -1.2636092e-05  -7.3917995e-05  -2.4473602e-04   8.7825711e-05   7.1416086e-05  -1.2181076e-04  -3.6194505e-04  -1.4588053e-04  -3.2935714e-04   0.0000000e+00   0.0000000e+00  -7.5795619e-05   0.0000000e+00  -3.7222938e-04  -4.9785399e-04  -2.1311743e-04  -2.0686017e-04   0.0000000e+00  -1.2094575e-04  -6.5829003e-05  -2.1625435e-04  -4.1112112e-04  -3.8820724e-04  -1.3058378e-04  -1.6939007e-04  -1.8466008e-04  -1.2292707e-04   0.0000000e+00  -1.5129153e-04  -2.6403426e-04   0.0000000e+00  -2.8569464e-04  -1.8009972e-04  -2.0031316e-04  -7.9948920e-04   1.5614936e-04  -7.8241063e-04  -1.3772850e-04  -8.9374476e-05  -2.2623721e-04  -3.9137884e-04  -1.0074023e-04  -5.0562201e-04  -3.4478082e-04   6.7448266e-05  -3.4364874e-04  -3.5061089e-05   0.0000000e+00   0.0000000e+00  -5.1234545e-06   0.0000000e+00   1.8397790e-04   1.2333240e-04   4.5612719e-05  -1.2807242e-05   0.0000000e+00   2.2775311e-04   2.5965120e-04   6.8079314e-05  -3.0073133e-05   6.4550244e-05  -5.7742658e-05  -5.9891734e-05  -6.4700098e-05  -1.6481316e-04   0.0000000e+00  -2.4454499e-04  -3.0805769e-04   0.0000000e+00  -4.3400902e-04  -1.6935914e-04  -4.0370687e-04  -5.2085224e-04   4.6835255e-04  -1.8405207e-04  -2.6544314e-04  -1.7927356e-04  -5.2472942e-05  -1.9675874e-04   3.0215798e-04   2.9068012e-04  -1.9984110e-04  -6.4003163e-04  -2.7370817e-04   4.2272239e-04   0.0000000e+00   0.0000000e+00  -1.0731407e-04   0.0000000e+00   3.2786453e-04  -1.4587638e-04  -2.6139551e-04  -1.9278292e-04   0.0000000e+00  -1.8982486e-04   2.3141830e-04   2.9422301e-04   1.3247203e-04   4.1123539e-05  -6.2456291e-05  -1.1798521e-04  -2.6155424e-04  -2.4130893e-04   0.0000000e+00  -2.1715108e-04  -4.2601046e-04   0.0000000e+00  -4.6219077e-04  -4.2259390e-05  -1.8213110e-04  -6.1477666e-04   1.0497973e-03  -2.8229332e-04  -2.6097796e-04  -8.5513163e-05   3.7584511e-05  -1.5943178e-04   5.6911424e-04   2.7635965e-04  -4.8810381e-05   7.8677546e-04   2.7575585e-05   9.9033479e-04   0.0000000e+00   0.0000000e+00  -2.7888128e-04   0.0000000e+00  -1.0220282e-04  -1.2117284e-04  -1.5601012e-05  -1.6678966e-05   0.0000000e+00  -9.1318488e-05   8.8874816e-05   1.1719345e-05  -2.1828587e-04   4.0005368e-05  -7.9797908e-05  -7.8171040e-05  -2.8995666e-04  -5.1534874e-04   0.0000000e+00  -4.2001089e-04   4.4069116e-04   0.0000000e+00  -5.8285789e-04  -7.9790372e-05  -5.2737399e-04  -1.1598693e-03   6.1119115e-04   1.6236264e-04  -4.0248762e-04  -2.0509562e-04  -1.7628435e-04  -5.2646071e-04   2.8874534e-04   1.3935779e-04  -2.8815235e-04  -5.2982036e-04  -6.1240618e-04  -2.5718373e-04   0.0000000e+00   0.0000000e+00  -2.5040190e-04   0.0000000e+00  -2.0137818e-04  -2.3268832e-04  -3.5177694e-04  -2.8360772e-04   0.0000000e+00  -7.0473893e-05  -5.7484699e-05  -1.6506499e-05  -1.1446739e-04  -2.3057292e-04  -2.9676871e-04  -3.2771919e-04  -4.2172246e-04  -4.7259521e-04   0.0000000e+00  -3.4363867e-04  -3.7460640e-04   0.0000000e+00  -4.6163247e-04  -3.1194250e-04  -3.3317335e-04  -7.1614585e-04   7.4979236e-05  -8.2814446e-04  -3.4623119e-04  -3.2107257e-04  -2.0314417e-04  -3.5963944e-04  -2.4456742e-05  -2.6326352e-04  -5.2391423e-04
   2.6710772e-04   2.5822051e-04   1.1665417e-04   0.0000000e+00   0.0000000e+00   2.6810890e-05   0.0000000e+00  -2.9495657e-05  -3.7643410e-05   1.4785542e-04   1.3348723e-04   0.0000000e+00   6.4179899e-05  -1.7220597e-05  -8.8129670e-05  -6.9863080e-05   8.1768023e-05   7.6069151e-05   9.0184659e-05   8.8459754e-05   9.2143616e-05   0.0000000e+00   5.8311013e-05   2.3795629e-04   0.0000000e+00   2.6178253e-04   1.1004157e-04   2.3089307e-04   2.1680462e-04  -5.5499797e-05   4.0202021e-04   1.0570977e-04   2.4615993e-05   1.5050981e-05   2.4168555e-05  -8.2852463e-05   7.8871984e-05   2.4623979e-04  -5.0283453e-04   1.6982665e-04  -2.0172761e-04   0.0000000e+00   0.0000000e+00   1.9264983e-04   0.0000000e+00  -4.4025611e-06  -7.1100099e-05   2.7227234e-04  -1.0438646e-06   0.0000000e+00   9.0111055e-05   3.8238219e-05  -1.5219254e-04   1.2584247e-04  -3.0709070e-04   7.8145486e-06   2.1013041e-04   5.2782465e-04   6.0218588e-04   0.0000000e+00   3.6645602e-04   4.4238558e-04   0.0000000e+00   4.8825249e-04   1.4681009e-04   4.9015882e-04  -1.5039029e-04  -5.3187803e-04  -4.3682348e-04   3.0540015e-04   3.6568231e-04  -6.2031525e-05  -1.3649594e-04  -3.8313265e-04  -1.4434971e-04  -2.2004534e-04   1.4654736e-04   2.9579629e-04  -6.4117887e-05   0.0000000e+00   0.0000000e+00  -4.2494504e-05   0.0000000e+00   1.2279769e-04   4.8305616e-05   7.9404296e-05   7.0393149e-05   0.0000000e+00  -1.2180210e-04   1.2173548e-04   1.8432296e-05  -1.3365817e-04  -1.7007096e-05   2.7242337e-06   1.3540105e-05   3.9985200e-05   1.0894230e-04   0.0000000e+00   1.2687239e-04   2.7474871e-04   0.0000000e+00   1.9653496e-04   7.0336998e-05   1.7329556e-04   4.1660377e-04   2.4882233e-05   1.0898984e-03   7.1637854e-05   1.5195509e-04   7.1099398e-05   1.4110414e-04   3.5301988e-05   6.3212109e-04   5.7996537e-04   1.0076789e-04  -3.6132376e-05   4.1158966e-04   0.0000000e+00   0.0000000e+00  -7.8887585e-05   0.0000000e+00   3.1051485e-04   7.7742050e-05  -2.1453127e-05   7.6393987e-05   0.0000000e+00   1.0090291e-04   1.8942516e-04   1.1924916e-04   2.0215055e-04   5.9691221e-05  -2.8690995e-05  -2.2680854e-05  -1.0700001e-04  -1.9617339e-04   0.0000000e+00  -2.1527488e-04  -6.6496522e-05   0.0000000e+00  -4.2258472e-04  -8.4970571e-05  -3.0398018e-04  -5.4774177e-04   5.2692604e-04  -1.0339195e-04  -1.5659568e-04  -8.8181258e-05  -1.1159061e-06  -6.5204717e-05   3.5829331e-04   2.5248111e-04  -3.9821318e-05  -1.0966024e-05   1.4621235e-04   5.1530076e-05   0.0000000e+00   0.0000000e+00   7.1496812e-05   0.0000000e+00   4.5254008e-05  -2.0480094e-04  -2.7065054e-05   1.1217424e-04   0.0000000e+00   1.6229090e-04   8.7848446e-05  -4.2737101e-05  -8.4766684e-05  -7.2048248e-05   7.7919453e-05   9.2524323e-05   3.5977476e-05   8.7690846e-05   0.0000000e+00   2.7136010e-05   3.9365523e-05   0.0000000e+00  -2.3237070e-05   2.8640426e-05  -2.4489931e-05  -3.3378819e-04   5.8445654e-06  -2.8273555e-04   3.0694746e-05   3.2011099e-06  -7.7462992e-05  -1.6725659e-04  -4.5287830e-05  -8.1027622e-05  -4.1066942e-06   5.4346421e-05  -6.6897126e-05   9.3187358e-05   0.0000000e+00   0.0000000e+00   4.5730405e-05   0.0000000e+00   9.2283551e-05  -1.2472230e-04  -1.0976442e-04   1.0726570e-04   0.0000000e+00   5.9916506e-05   1.2137019e-04   3.6623312e-05  -6.7592748e-05  -8.4628674e-05   6.0051123e-06  -1.1118218e-05  -9.4444259e-05  -8.6647947e-05   0.0000000e+00  -1.2521071e-04  -9.6510851e-05   0.0000000e+00  -2.5693231e-04  -2.3617793e-05  -2.6328637e-04  -7.5562664e-04   1.8510317e-04  -4.1195059e-04  -5.3206795e-05  -1.6755570e-05  -8.0794467e-05  -2.6964424e-04   7.7586422e-05   5.0836261e-05  -1.5496651e-04  -3.9118965e-04  -1.6078171e-04  -3.4329374e-04   0.0000000e+00   0.0000000e+00  -8.6010081e-05   0.0000000e+00  -3.9168553e-04  -5.1709198e-04  -2.1753923e-04  -2.1668783e-04   0.0000000e+00  -1.3984356e-04  -6.3833470e-05  -2.4871158e-04  -4.3777767e-04  -3.9546166e-04  -1.4420534e-04  -1.8929538e-04  -2.0255087e-04  -1.3074549e-04   0.0000000e+00  -1.5958403e-04  -2.7944646e-04   0.0000000e+00  -2.9052330e-04  -1.9933371e-04  -2.0184800e-04  -7.6148920e-04   7.4085867e-05  -7.7161648e-04  -1.5094334e-04  -1.0478132e-04  -2.4296053e-04  -4.1875850e-04  -1.5677483e-04  -5.3256761e-04  -3.5219622e-04   3.8443966e-05  -4.0098547e-04  -3.6508854e-05   0.0000000e+00   0.0000000e+00  -9.7973908e-06   0.0000000e+00   2.0363409e-04   1.2412743e-04   3.8497996e-05  -2.1378582e-05   0.0000000e+00   2.3003503e-04   2.7768673e-04   8.5277669e-05  -2.3949267e-05   6.2358759e-05  -7.0444711e-05  -7.4921507e-05  -8.6425090e-05  -1.9179472e-04   0.0000000e+00  -2.7819439e-04  -3.7035721e-04   0.0000000e+00  -5.0521064e-04  -1.9859092e-04  -4.6144797e-04  -5.6982362e-04   5.2293384e-04  -2.1424491e-04  -3.0167614e-04  -1.9751164e-04  -5.9411514e-05  -2.1386855e-04   3.4199378e-04   3.0141433e-04  -2.2092926e-04  -6.3837250e-04  -2.9308098e-04   4.7563613e-04   0.0000000e+00   0.0000000e+00  -1.1633697e-04   0.0000000e+00   3.8838548e-04  -1.3162764e-04  -2.5410828e-04  -1.9666570e-04   0.0000000e+00  -1.9342960e-04   2.4905580e-04   3.1832907e-04   1.3410900e-04   3.4018872e-05  -7.1556142e-05  -1.3556222e-04  -2.8711508e-04  -2.6820027e-04   0.0000000e+00  -2.4306961e-04  -4.4747674e-04   0.0000000e+00  -5.1445078e-04  -6.1978967e-05  -2.2522733e-04  -6.4802939e-04   1.0891941e-03  -2.7854745e-04  -2.8990388e-04  -9.8418587e-05   4.5760352e-05  -1.7083842e-04   5.9426389e-04   3.0152448e-04  -3.5151277e-05   8.6130256e-04   1.4601724e-05   1.0271330e-03   0.0000000e+00   0.0000000e+00  -2.7687657e-04   0.0000000e+00  -1.0658099e-04  -1.2888958e-04  -3.9336188e-05  -3.4726310e-05   0.0000000e+00  -9.2947188e-05   1.0381446e-04   2.3199823e-05  -2.4010577e-04   2.3091088e-05  -8.1062191e-05  -8.5213861e-05  -3.0018386e-04  -5.3809214e-04   0.0000000e+00  -4.2239865e-04   5.0113614e-04   0.0000000e+00  -6.1006404e-04  -7.8296349e-05  -5.6103000e-04  -1.1285140e-03   6.1543669e-04   2.0706880e-04  -4.1258018e-04  -2.0059349e-04  -1.8059834e-04  -5.3694443e-04   2.8581893e-04   1.3648898e-04  -2.7980302e-04  -5.6384605e-04  -6.3149454e-04  -2.5365011e-04   0.0000000e+00   0.0000000e+00  -2.5368203e-04   0.0000000e+00  -2.0689676e-04  -2.3944134e-04  -3.6824557e-04  -2.9668366e-04   0.0000000e+00  -8.4345071e-05  -5.4792875e-05  -1.8017963e-05  -1.0259451e-04  -2.3013421e-04  -3.1239663e-04  -3.3531340e-04  -4.3670441e-04  -4.9072992e-04   0.0000000e+00  -3.3794158e-04  -3.8504760e-04   0.0000000e+00  -4.6243650e-04  -3.1407886e-04  -3.2996706e-04  -6.8032224e-04   1.0080684e-04  -8.3142524e-04  -3.4587649e-04  -3.1761384e-04  -1.9460698e-04  -3.3108218e-04  -4.6354041e-06  -2.5584340e-04  -5.3338682e-04
   2.5715778e-04   2.5692347e-04   1.2466784e-04   0.0000000e+00   0.0000000e+00   3.2325813e-05   0.0000000e+00  -2.0883561e-05  -3.9419879e-05   1.5003189e-04   1.4555954e-04   0.0000000e+00   7.5030167e-05  -5.9069914e-06  -8.3934388e-05  -6.7355466e-05   8.7090949e-05   7.7128072e-05   9.2211443e-05   8.7381190e-05   9.1085793e-05   0.0000000e+00   5.1891927e-05   2.3788381e-04   0.0000000e+00   2.5130527e-04   1.1159898e-04   2.1491398e-04   1.8011471e-04  -2.5221242e-05   3.8965895e-04   1.0578415e-04   2.4495171e-05   1.2847081e-05   7.3594992e-06  -6.8464674e-05   8.9708939e-05   2.3939689e-04  -4.8827655e-04   1.5779523e-04  -2.4981345e-04   0.0000000e+00   0.0000000e+00   2.2673270e-04   0.0000000e+00  -2.2220453e-06  -1.1915324e-04   2.5896409e-04  -1.5726536e-05   0.0000000e+00   7.4549741e-05   5.9419350e-05  -1.5939450e-04   1.3209994e-04  -3.4271917e-04   1.6384332e-05   2.1669184e-04   5.4117671e-04   6.2741381e-04   0.0000000e+00   3.8861122e-04   4.5492275e-04   0.0000000e+00   4.6218955e-04   1.5370326e-04   4.5525948e-04  -2.7538596e-04  -5.4769057e-04  -5.7572957e-04   3.1615115e-04   3.9025852e-04  -6.3554657e-05  -1.6369479e-04  -3.8386002e-04  -1.8224741e-04  -2.9412772e-04   1.0425979e-04   3.3508822e-04  -9.1753953e-05   0.0000000e+00   0.0000000e+00  -3.4108177e-05   0.0000000e+00   1.9928016e-04   8.8927651e-05   8.9188509e-05   8.6878257e-05   0.0000000e+00  -8.4302076e-05   2.2320586e-04   2.9856098e-05  -1.3832781e-04  -1.3916804e-05   5.7142085e-06   2.2415405e-05   5.6568477e-05   1.3358835e-04   0.0000000e+00   1.4573865e-04   3.0026770e-04   0.0000000e+00   2.4917052e-04   9.2199941e-05   2.0869036e-04   5.1698540e-04   5.0521019e-05   1.3115078e-03   9.5605615e-05   1.8267063e-04   7.8756121e-05   1.4698912e-04   5.3129569e-05   7.5660074e-04   7.0694282e-04   1.1956482e-04  -5.4920001e-05   4.3656912e-04   0.0000000e+00   0.0000000e+00  -8.5280639e-05   0.0000000e+00   3.2889761e-04   8.8673031e-05  -2.9592392e-05   6.8110228e-05   0.0000000e+00   1.1426690e-04   2.0070831e-04   1.3412720e-04   2.2117911e-04   5.8162095e-05  -4.1790859e-05  -3.6402678e-05  -1.2036685e-04  -2.1785657e-04   0.0000000e+00  -2.3576526e-04  -7.6692045e-05   0.0000000e+00  -4.4931118e-04  -1.0182287e-04  -3.3348721e-04  -5.2968613e-04   5.3622866e-04  -7.4272130e-05  -1.7644014e-04  -1.0500620e-04  -1.0202411e-06  -7.0335683e-05   3.6243772e-04   2.6889861e-04  -3.5112806e-05  -3.2143860e-05   1.5695735e-04   6.5511368e-05   0.0000000e+00   0.0000000e+00   7.8404111e-05   0.0000000e+00   5.7196631e-05  -2.3339917e-04  -4.2160912e-05   1.2043277e-04   0.0000000e+00   1.6309899e-04   9.6096226e-05  -2.9875340e-05  -1.1238062e-04  -8.9081983e-05   8.2383008e-05   9.5250379e-05   3.2038091e-05   8.4806489e-05   0.0000000e+00   1.9131840e-05   3.7201266e-05   0.0000000e+00  -4.9080058e-05   2.3998310e-05  -4.8739963e-05  -3.8183386e-04   1.3282751e-05  -3.3588527e-04   1.9555331e-05   4.1571094e-07  -8.5385430e-05  -1.9254765e-04  -4.0888605e-05  -8.7359296e-05  -1.8520187e-05   7.0087652e-06  -1.1150154e-04   5.8344934e-05   0.0000000e+00   0.0000000e+00   5.3472485e-05   0.0000000e+00   8.2425066e-05  -1.2493172e-04  -1.3912670e-04   8.5843715e-05   0.0000000e+00   5.3366803e-05   1.0432510e-04   4.5525064e-05  -6.4041175e-05  -1.1203722e-04  -6.2332121e-06  -2.2879075e-05  -1.0280155e-04  -9.8550699e-05   0.0000000e+00  -1.4675812e-04  -1.3921764e-04   0.0000000e+00  -2.8954695e-04  -4.5476926e-05  -2.9968579e-04  -7.7114126e-04   1.5768328e-04  -4.7451821e-04  -6.6821537e-05  -2.0402773e-05  -8.6033680e-05  -2.9045605e-04   6.2279038e-05   2.5034832e-05  -1.8735736e-04  -4.1429577e-04  -1.7570849e-04  -3.5284510e-04   0.0000000e+00   0.0000000e+00  -9.6405543e-05   0.0000000e+00  -4.0650264e-04  -5.2718059e-04  -2.1784409e-04  -2.2490436e-04   0.0000000e+00  -1.5863590e-04  -6.0566274e-05  -2.8215229e-04  -4.5955455e-04  -3.9517051e-04  -1.5712798e-04  -2.0863294e-04  -2.1798785e-04  -1.3631037e-04   0.0000000e+00  -1.6512266e-04  -2.9160074e-04   0.0000000e+00  -2.8738254e-04  -2.1643067e-04  -1.9840122e-04  -6.9927452e-04  -2.8399954e-05  -7.4310171e-04  -1.6270101e-04  -1.2015129e-04  -2.5652588e-04  -4.3867640e-04  -2.2100902e-04  -5.5822642e-04  -3.5049382e-04   5.9755847e-06  -4.5524988e-04  -3.6957994e-05   0.0000000e+00   0.0000000e+00  -1.5446906e-05   0.0000000e+00   2.2068481e-04   1.2113724e-04   2.9302352e-05  -3.0337585e-05   0.0000000e+00   2.2770092e-04   2.9352467e-04   1.0395804e-04  -1.5430569e-05   5.7746463e-05  -8.3093009e-05  -9.0365180e-05  -1.0926768e-04  -2.1737539e-04   0.0000000e+00  -3.0809779e-04  -4.3452626e-04   0.0000000e+00  -5.7389682e-04  -2.2775235e-04  -5.1471606e-04  -6.1811618e-04   5.7257053e-04  -2.4522007e-04  -3.3439893e-04  -2.1328614e-04  -6.7083278e-05  -2.2843863e-04   3.7779727e-04   3.0665569e-04  -2.3675650e-04  -6.2502561e-04  -3.1038937e-04   5.1921603e-04   0.0000000e+00   0.0000000e+00  -1.2526064e-04   0.0000000e+00   4.4840740e-04  -1.1186773e-04  -2.4050321e-04  -1.9766710e-04   0.0000000e+00  -1.9407863e-04   2.6284886e-04   3.3754643e-04   1.3608256e-04   2.7001924e-05  -8.0221735e-05  -1.5331570e-04  -3.1020281e-04  -2.9190016e-04   0.0000000e+00  -2.6510628e-04  -4.5806011e-04   0.0000000e+00  -5.6106874e-04  -8.2073983e-05  -2.6610223e-04  -6.7426117e-04   1.1132273e-03  -2.6796385e-04  -3.1630464e-04  -1.1134748e-04   5.4550065e-05  -1.7781616e-04   6.0909077e-04   3.2613470e-04  -1.7898599e-05   9.2224006e-04   4.2620245e-06   1.0484916e-03   0.0000000e+00   0.0000000e+00  -2.6878144e-04   0.0000000e+00  -1.0882413e-04  -1.3566677e-04  -5.9926221e-05  -5.5547747e-05   0.0000000e+00  -9.3140866e-05   1.1903787e-04   3.3854066e-05  -2.5828120e-04   6.2412108e-06  -7.9307245e-05  -8.9047192e-05  -3.0223909e-04  -5.4889214e-04   0.0000000e+00  -4.1117833e-04   5.5791075e-04   0.0000000e+00  -6.2061410e-04  -7.2633419e-05  -5.8080674e-04  -1.0603484e-03   6.0954663e-04   2.6008149e-04  -4.1301977e-04  -1.9025626e-04  -1.8060735e-04  -5.3473940e-04   2.7519044e-04   1.2974288e-04  -2.6142528e-04  -5.9360895e-04  -6.4404295e-04  -2.4473782e-04   0.0000000e+00   0.0000000e+00  -2.5268292e-04   0.0000000e+00  -2.0835986e-04  -2.4091311e-04  -3.7826853e-04  -3.0550784e-04   0.0000000e+00  -9.8800620e-05  -5.0910369e-05  -1.8956961e-05  -8.9033488e-05  -2.2652209e-04  -3.2339584e-04  -3.3734628e-04  -4.4535703e-04  -5.0228081e-04   0.0000000e+00  -3.2804027e-04  -3.9162621e-04   0.0000000e+00  -4.5688704e-04  -3.1210591e-04  -3.2178066e-04  -6.3706644e-04   1.2583445e-04  -8.3181659e-04  -3.4071516e-04  -3.0893538e-04  -1.8327779e-04  -2.9801985e-04   1.6057878e-05  -2.4751923e-04  -5.4080632e-04
   2.3997012e-04   2.4936349e-04   1.3211948e-04   0.0000000e+00   0.0000000e+00   3.7708952e-05   0.0000000e+00  -1.1458360e-05  -4.1098519e-05   1.4889896e-04   1.5555615e-04   0.0000000e+00   8.4906387e-05   6.3405662e-06  -7.7472295e-05  -6.3328057e-05   9.1276106e-05   7.6711100e-05   9.2408756e-05   8.4057994e-05   8.7467402e-05   0.0000000e+00   4.3281402e-05   2.3215735e-04   0.0000000e+00   2.3349073e-04   1.1081944e-04   1.9204600e-04   1.3624506e-04   9.0505168e-06   3.6827187e-04   1.0323601e-04   2.3461560e-05   1.0303563e-05  -1.0813749e-05  -5.0698801e-05   9.9868184e-05   2.2701337e-04  -4.7058899e-04   1.4768940e-04  -3.0557033e-04   0.0000000e+00   0.0000000e+00   2.6032167e-04   0.0000000e+00   1.2792631e-06  -1.7245949e-04   2.4021283e-04  -3.1966357e-05   0.0000000e+00   5.7725396e-05   8.0430053e-05  -1.6805162e-04   1.2775678e-04  -3.7693294e-04   2.8759949e-05   2.2115608e-04   5.4732147e-04   6.4707149e-04   0.0000000e+00   4.1203326e-04   4.6501858e-04   0.0000000e+00   4.2800098e-04   1.5810738e-04   4.1567450e-04  -4.0386242e-04  -5.5534820e-04  -7.1836557e-04   3.2653119e-04   4.1367674e-04  -6.4619707e-05  -1.8784959e-04  -3.8109117e-04  -2.2186377e-04  -3.7086431e-04   5.7132507e-05   3.7645594e-04  -1.2248637e-04   0.0000000e+00   0.0000000e+00  -2.1146321e-05   0.0000000e+00   2.8223212e-04   1.3157616e-04   9.8180719e-05   1.0356366e-04   0.0000000e+00  -4.2319379e-05   3.3686443e-04   4.1831917e-05  -1.3885752e-04  -1.1537446e-05   1.0855247e-05   3.3364550e-05   7.3640040e-05   1.5924954e-04   0.0000000e+00   1.6428350e-04   3.3007270e-04   0.0000000e+00   3.0275434e-04   1.1613307e-04   2.4301553e-04   6.0399384e-04   7.7547767e-05   1.5138627e-03   1.1914116e-04   2.1011222e-04   8.3847182e-05   1.4209227e-04   6.9672448e-05   8.7382212e-04   8.2895446e-04   1.3463499e-04  -7.4044492e-05   4.5618575e-04   0.0000000e+00   0.0000000e+00  -9.0901433e-05   0.0000000e+00   3.4274393e-04   1.0165511e-04  -3.7113405e-05   5.7976372e-05   0.0000000e+00   1.2604705e-04   2.0944603e-04   1.4692168e-04   2.3794953e-04   5.7921018e-05  -5.5305501e-05  -5.0584994e-05  -1.3271013e-04  -2.3715097e-04   0.0000000e+00  -2.5283750e-04  -8.6838779e-05   0.0000000e+00  -4.6837270e-04  -1.1722963e-04  -3.5822225e-04  -4.9437162e-04   5.3762207e-04  -3.5994293e-05  -1.9377804e-04  -1.2131256e-04   2.9437506e-07  -7.2290912e-05   3.6194233e-04   2.8285523e-04  -2.7637532e-05  -5.1237706e-05   1.6546978e-04   7.7452208e-05   0.0000000e+00   0.0000000e+00   8.3902771e-05   0.0000000e+00   6.5819341e-05  -2.6080191e-04  -5.6968155e-05   1.2669038e-04   0.0000000e+00   1.6045106e-04   1.0109327e-04  -1.8696116e-05  -1.4240096e-04  -1.0588687e-04   8.5050302e-05   9.5709373e-05   2.6947652e-05   7.9233053e-05   0.0000000e+00   1.0075098e-05   3.6714708e-05   0.0000000e+00  -7.3049769e-05   1.9470299e-05  -7.2826029e-05  -4.2336114e-04   1.8707933e-05  -3.8618321e-04   6.9752661e-06  -3.7849704e-06  -9.2490951e-05  -2.1666313e-04  -3.8504505e-05  -9.3749112e-05  -3.3872389e-05  -4.7343609e-05  -1.5808121e-04   1.6567209e-05   0.0000000e+00   0.0000000e+00   6.1862664e-05   0.0000000e+00   6.5893697e-05  -1.2402127e-04  -1.6716180e-04   6.2033734e-05   0.0000000e+00   4.3231860e-05   8.1674715e-05   5.2257175e-05  -5.9582536e-05  -1.3867089e-04  -1.8869638e-05  -3.4316905e-05  -1.0874345e-04  -1.0882955e-04   0.0000000e+00  -1.6748778e-04  -1.8374066e-04   0.0000000e+00  -3.1670181e-04  -6.7435510e-05  -3.3153871e-04  -7.6995095e-04   1.2202465e-04  -5.3160562e-04  -7.9209607e-05  -2.3441305e-05  -8.9529741e-05  -3.0667725e-04   4.2492105e-05  -5.1205528e-06  -2.1817397e-04  -4.2976271e-04  -1.9073116e-04  -3.5967710e-04   0.0000000e+00   0.0000000e+00  -1.0683563e-04   0.0000000e+00  -4.1796297e-04  -5.2930633e-04  -2.1481962e-04  -2.3206848e-04   0.0000000e+00  -1.7716749e-04  -5.7135951e-05  -3.1606442e-04  -4.7689269e-04  -3.8900649e-04  -1.6910500e-04  -2.2710931e-04  -2.3044985e-04  -1.3967475e-04   0.0000000e+00  -1.6806362e-04  -3.0078594e-04   0.0000000e+00  -2.7661762e-04  -2.3097258e-04  -1.9041320e-04  -6.1854155e-04  -1.4780511e-04  -7.0188638e-04  -1.7293576e-04  -1.3494991e-04  -2.6692640e-04  -4.5074926e-04  -2.9158342e-04  -5.8469199e-04  -3.4047334e-04  -2.8900440e-05  -5.0500884e-04  -3.6821509e-05   0.0000000e+00   0.0000000e+00  -2.1994840e-05   0.0000000e+00   2.3447981e-04   1.1438490e-04   1.8400782e-05  -3.9162091e-05   0.0000000e+00   2.2084795e-04   3.0649941e-04   1.2357553e-04  -4.8245863e-06   5.0908316e-05  -9.5433537e-05  -1.0589099e-04  -1.3262270e-04  -2.4098809e-04   0.0000000e+00  -3.3330512e-04  -4.9890995e-04   0.0000000e+00  -6.3857844e-04  -2.5630835e-04  -5.6241255e-04  -6.6584100e-04   6.1600266e-04  -2.7675226e-04  -3.6260669e-04  -2.2624212e-04  -7.5506064e-05  -2.4027999e-04   4.0833325e-04   3.0639014e-04  -2.4724248e-04  -6.0387383e-04  -3.2599176e-04   5.5074363e-04   0.0000000e+00   0.0000000e+00  -1.3415251e-04   0.0000000e+00   5.0586839e-04  -8.7395735e-05  -2.2202590e-04  -1.9668175e-04   0.0000000e+00  -1.9218551e-04   2.7254037e-04   3.5178131e-04   1.3938791e-04   2.0546054e-05  -8.8366399e-05  -1.7104548e-04  -3.3041218e-04  -3.1160946e-04   0.0000000e+00  -2.8243180e-04  -4.5783109e-04   0.0000000e+00  -6.0014675e-04  -1.0181224e-04  -3.0228707e-04  -6.9263183e-04   1.1220266e-03  -2.5154994e-04  -3.3940137e-04  -1.2376139e-04   6.3669125e-05  -1.7995977e-04   6.1332076e-04   3.4981803e-04   1.6966827e-06   9.6853607e-04  -1.7111206e-06   1.0568581e-03   0.0000000e+00   0.0000000e+00  -2.5551150e-04   0.0000000e+00  -1.0869704e-04  -1.4138311e-04  -7.4951014e-05  -7.7877400e-05   0.0000000e+00  -9.1628713e-05   1.3459253e-04   4.2963667e-05  -2.7229661e-04  -8.9779385e-06  -7.4251968e-05  -8.8998992e-05  -2.9592273e-04  -5.4770579e-04   0.0000000e+00  -3.8663720e-04   6.0991368e-04   0.0000000e+00  -6.1411351e-04  -6.2435567e-05  -5.8565796e-04  -9.5908985e-04   5.9575702e-04   3.2078282e-04  -4.0397521e-04  -1.7459113e-04  -1.7641488e-04  -5.2057662e-04   2.5793890e-04   1.2013037e-04  -2.3362572e-04  -6.1916108e-04  -6.5082811e-04  -2.3175696e-04   0.0000000e+00   0.0000000e+00  -2.4789067e-04   0.0000000e+00  -2.0611418e-04  -2.3740376e-04  -3.8206893e-04  -3.1019235e-04   0.0000000e+00  -1.1346159e-04  -4.6353102e-05  -1.9123348e-05  -7.5063256e-05  -2.2068520e-04  -3.2962855e-04  -3.3420748e-04  -4.4809383e-04  -5.0757488e-04   0.0000000e+00  -3.1510453e-04  -3.9465464e-04   0.0000000e+00  -4.4605483e-04  -3.0667002e-04  -3.0950966e-04  -5.9062551e-04   1.4847188e-04  -8.3254231e-04  -3.3180135e-04  -2.9609031e-04  -1.7026017e-04  -2.6315442e-04   3.6344543e-05  -2.3988559e-04  -5.4761513e-04
   2.1681575e-04   2.3602645e-04   1.3924154e-04   0.0000000e+00   0.0000000e+00   4.2783009e-05   0.0000000e+00  -1.5071193e-06  -4.2534247e-05   1.4467334e-04   1.6318200e-04   0.0000000e+00   9.3439290e-05   1.9063608e-05  -6.8939947e-05  -5.7936978e-05   9.4338583e-05   7.4849080e-05   9.0794692e-05   7.8596148e-05   8.1382928e-05   0.0000000e+00   3.2740195e-05   2.2114728e-04   0.0000000e+00   2.0903569e-04   1.0773670e-04   1.6325116e-04   8.7309626e-05   4.6135560e-05   3.3935418e-04   9.8198119e-05   2.1495066e-05   7.5456456e-06  -2.9623898e-05  -3.0200667e-05   1.0919061e-04   2.0983131e-04  -4.5420740e-04   1.4124436e-04  -3.6723039e-04   0.0000000e+00   0.0000000e+00   2.9291616e-04   0.0000000e+00   6.8104786e-06  -2.2902913e-04   2.1793318e-04  -4.8595753e-05   0.0000000e+00   4.1521204e-05   1.0077044e-04  -1.7817189e-04   1.1248351e-04  -4.0863783e-04   4.5154259e-05   2.2432099e-04   5.4799136e-04   6.6272126e-04   0.0000000e+00   4.3753957e-04   4.7415576e-04   0.0000000e+00   3.8841871e-04   1.5987497e-04   3.7536387e-04  -5.3009932e-04  -5.5507063e-04  -8.5914010e-04   3.3768515e-04   4.3672431e-04  -6.5033518e-05  -2.0751099e-04  -3.7597557e-04  -2.6094782e-04  -4.4737417e-04   8.1254984e-06   4.1915912e-04  -1.5539878e-04   0.0000000e+00   0.0000000e+00  -4.0529061e-06   0.0000000e+00   3.6825469e-04   1.7440506e-04   1.0592036e-04   1.1960810e-04   0.0000000e+00   1.5958273e-06   4.5791221e-04   5.4119387e-05  -1.3517310e-04  -1.0322936e-05   1.8446603e-05   4.5929532e-05   9.0324282e-05   1.8497129e-04   0.0000000e+00   1.8122129e-04   3.6501124e-04   0.0000000e+00   3.5440954e-04   1.4083972e-04   2.7403233e-04   6.7067921e-04   1.0410589e-04   1.6811995e-03   1.4050668e-04   2.3180581e-04   8.5748419e-05   1.2486518e-04   8.3447145e-05   9.7677517e-04   9.3874959e-04   1.4545858e-04  -9.2518568e-05   4.7030663e-04   0.0000000e+00   0.0000000e+00  -9.5832903e-05   0.0000000e+00   3.5234155e-04   1.1665446e-04  -4.3663098e-05   4.6249136e-05   0.0000000e+00   1.3601092e-04   2.1586651e-04   1.5714914e-04   2.5220948e-04   5.9356524e-05  -6.8734551e-05  -6.4707210e-05  -1.4372634e-04  -2.5345192e-04   0.0000000e+00  -2.6588516e-04  -9.6501241e-05   0.0000000e+00  -4.7942264e-04  -1.3057669e-04  -3.7732894e-04  -4.4351598e-04   5.3218238e-04   1.0380982e-05  -2.0810387e-04  -1.3652519e-04   2.9117645e-06  -7.0647480e-05   3.5766859e-04   2.9432223e-04  -1.7228658e-05  -6.7243049e-05   1.7158540e-04   8.6631919e-05   0.0000000e+00   0.0000000e+00   8.7958245e-05   0.0000000e+00   7.0513082e-05  -2.8593888e-04  -7.0781841e-05   1.3088323e-04   0.0000000e+00   1.5456648e-04   1.0238716e-04  -1.0188422e-05  -1.7350138e-04  -1.2183396e-04   8.5914688e-05   9.4016584e-05   2.1069587e-05   7.1389640e-05   0.0000000e+00   5.7927537e-07   3.8191016e-05   0.0000000e+00  -9.3728244e-05   1.5578163e-05  -9.5559190e-05  -4.5643886e-04   2.1920034e-05  -4.3168362e-04  -6.2011028e-06  -9.1293368e-06  -9.8479061e-05  -2.3840143e-04  -3.8511906e-05  -1.0019508e-04  -4.9237063e-05  -1.0622603e-04  -2.0508767e-04  -3.0824493e-05   0.0000000e+00   0.0000000e+00   7.0537435e-05   0.0000000e+00   4.2938811e-05  -1.2247723e-04  -1.9284086e-04   3.7200003e-05   0.0000000e+00   2.9543879e-05   5.4226445e-05   5.6243528e-05  -5.4779261e-05  -1.6344297e-04  -3.1371478e-05  -4.4982973e-05  -1.1219762e-04  -1.1730191e-04   0.0000000e+00  -1.8684203e-04  -2.2874788e-04   0.0000000e+00  -3.3764461e-04  -8.8631214e-05  -3.5789832e-04  -7.5326359e-04   7.9606582e-05  -5.8199148e-04  -8.9976694e-05  -2.5799840e-05  -9.1311253e-05  -3.1807940e-04   1.9072142e-05  -3.8558184e-05  -2.4675287e-04  -4.3634693e-04  -2.0591687e-04  -3.6580590e-04   0.0000000e+00   0.0000000e+00  -1.1713183e-04   0.0000000e+00  -4.2769966e-04  -5.2528604e-04  -2.0947639e-04  -2.3873975e-04   0.0000000e+00  -1.9532021e-04  -5.4798681e-05  -3.4988494e-04  -4.9051753e-04  -3.7913727e-04  -1.7989190e-04  -2.4444416e-04  -2.3954080e-04  -1.4102835e-04   0.0000000e+00  -1.6873367e-04  -3.0742576e-04   0.0000000e+00  -2.5900765e-04  -2.4268545e-04  -1.7858590e-04  -5.2650508e-04  -2.7964034e-04  -6.5409359e-04  -1.8168153e-04  -1.4865357e-04  -2.7435151e-04  -4.5506675e-04  -3.6628632e-04  -6.1402772e-04  -3.2347411e-04  -6.5059228e-05  -5.4909041e-04  -3.6613867e-05   0.0000000e+00   0.0000000e+00  -2.9320831e-05   0.0000000e+00   2.4448249e-04   1.0407748e-04   6.2685568e-06  -4.7287079e-05   0.0000000e+00   2.0963421e-04   3.1592271e-04   1.4344766e-04   7.3983758e-06   4.2203327e-05  -1.0726639e-04  -1.2120632e-04  -1.5589773e-04  -2.6221671e-04   0.0000000e+00  -3.5319128e-04  -5.6184059e-04   0.0000000e+00  -6.9814283e-04  -2.8382347e-04  -6.0389905e-04  -7.1298428e-04   6.5230721e-04  -3.0859709e-04  -3.8557470e-04  -2.3616664e-04  -8.4632941e-05  -2.4932377e-04   4.3268418e-04   3.0084121e-04  -2.5272005e-04  -5.7934266e-04  -3.4018638e-04   5.6851955e-04   0.0000000e+00   0.0000000e+00  -1.4308326e-04   0.0000000e+00   5.5882158e-04  -5.9176952e-05  -2.0027230e-04  -1.9468474e-04   0.0000000e+00  -1.8825148e-04   2.7800139e-04   3.6128476e-04   1.4484919e-04   1.5085666e-05  -9.5867809e-05  -1.8846899e-04  -3.4738237e-04  -3.2666860e-04   0.0000000e+00  -2.9443579e-04  -4.4750786e-04   0.0000000e+00  -6.2983829e-04  -1.2042387e-04  -3.3125618e-04  -7.0192601e-04   1.1160911e-03  -2.3018317e-04  -3.5845890e-04  -1.3506863e-04   7.2836402e-05  -1.7703343e-04   6.0708433e-04   3.7211040e-04   2.2358874e-05   1.0001595e-03  -1.8192086e-06   1.0555061e-03   0.0000000e+00   0.0000000e+00  -2.3820790e-04   0.0000000e+00  -1.0605875e-04  -1.4588988e-04  -8.2227205e-05  -1.0021744e-04   0.0000000e+00  -8.8088085e-05   1.5062357e-04   4.9942796e-05  -2.8182305e-04  -2.1048176e-05  -6.5739130e-05  -8.4578640e-05  -2.8145288e-04  -5.3512727e-04   0.0000000e+00  -3.4980599e-04   6.5651634e-04   0.0000000e+00  -5.9112896e-04  -4.7517539e-05  -5.7535357e-04  -8.3050479e-04   5.7667156e-04   3.8820480e-04  -3.8606563e-04  -1.5434301e-04  -1.6832587e-04  -4.9584343e-04   2.3552396e-04   1.0895674e-04  -1.9746701e-04  -6.4071464e-04  -6.5276489e-04  -2.1622943e-04   0.0000000e+00   0.0000000e+00  -2.3993544e-04   0.0000000e+00  -2.0073809e-04  -2.2948289e-04  -3.8020366e-04  -3.1105070e-04   0.0000000e+00  -1.2799791e-04  -4.1704647e-05  -1.8390368e-05  -6.1958631e-05  -2.1362664e-04  -3.3120311e-04  -3.2650582e-04  -4.4557614e-04  -5.0717031e-04   0.0000000e+00  -3.0031634e-04  -3.9455363e-04   0.0000000e+00  -4.3112523e-04  -2.9850193e-04  -2.9414405e-04  -5.4499286e-04   1.6717594e-04  -8.3636408e-04  -3.2028471e-04  -2.8028952e-04  -1.5665801e-04  -2.2907381e-04   5.4946321e-05  -2.3434775e-04  -5.5502663e-04
   1.8928788e-04   2.1765748e-04   1.4623870e-04   0.0000000e+00   0.0000000e+00   4.7378434e-05   0.0000000e+00   8.6800348e-06  -4.3540647e-05   1.3772890e-04   1.6822945e-04   0.0000000e+00   1.0030795e-04   3.1785384e-05  -5.8610335e-05  -5.1392932e-05   9.6341230e-05   7.1617019e-05   8.7458861e-05   7.1201938e-05   7.3044007e-05   0.0000000e+00   2.0637112e-05   2.0547281e-04   0.0000000e+00   1.7895721e-04   1.0247404e-04   1.2977275e-04   3.5708375e-05   8.4689649e-05   3.0474639e-04   9.0917139e-05   1.8618712e-05   4.7070007e-06  -4.8318793e-05  -7.7602120e-06   1.1753723e-04   1.8880135e-04  -4.4374496e-04   1.3986484e-04  -4.3249554e-04   0.0000000e+00   0.0000000e+00   3.2420664e-04   0.0000000e+00   1.5038554e-05  -2.8658111e-04   1.9430472e-04  -6.4342358e-05   0.0000000e+00   2.7866607e-05   1.2010107e-04  -1.8957409e-04   8.6886396e-05  -4.3668170e-04   6.5566894e-05   2.2713976e-04   5.4537959e-04   6.7622480e-04   0.0000000e+00   4.6576572e-04   4.8379855e-04   0.0000000e+00   3.4634381e-04   1.5896321e-04   3.3815069e-04  -6.4840250e-04  -5.4741963e-04  -9.9266290e-04   3.5070295e-04   4.6026754e-04  -6.4543977e-05  -2.2141653e-04  -3.6967061e-04  -2.9712250e-04  -5.2082564e-04  -3.9470877e-05   4.6244929e-04  -1.8935055e-04   0.0000000e+00   0.0000000e+00   1.6444529e-05   0.0000000e+00   4.5362909e-04   2.1563698e-04   1.1215647e-04   1.3423810e-04   0.0000000e+00   4.4795661e-05   5.8064516e-04   6.6503591e-05  -1.2746291e-04  -1.0647126e-05   2.8774709e-05   5.9548830e-05   1.0584031e-04   2.0981671e-04   0.0000000e+00   1.9514246e-04   4.0579877e-04   0.0000000e+00   4.0109257e-04   1.6481717e-04   2.9947257e-04   7.1124556e-04   1.2811154e-04   1.7983390e-03   1.5794683e-04   2.4539061e-04   8.4026607e-05   9.4544617e-05   9.2998120e-05   1.0586985e-03   1.0292272e-03   1.5202319e-04  -1.0935644e-04   4.7891248e-04   0.0000000e+00   0.0000000e+00  -1.0020644e-04   0.0000000e+00   3.5821015e-04   1.3345292e-04  -4.8963699e-05   3.3205878e-05   0.0000000e+00   1.4409007e-04   2.2035677e-04   1.6446784e-04   2.6386814e-04   6.2704279e-05  -8.1583423e-05  -7.8254610e-05  -1.5315585e-04  -2.6627497e-04   0.0000000e+00  -2.7446098e-04  -1.0520920e-04   0.0000000e+00  -4.8245571e-04  -1.4137183e-04  -3.9014328e-04  -3.7966299e-04   5.2123347e-04   6.3335888e-05  -2.1907411e-04  -1.5010247e-04   6.8327754e-06  -6.5147555e-05   3.5058766e-04   3.0335598e-04  -3.7939996e-06  -7.9368341e-05   1.7535819e-04   9.2463686e-05   0.0000000e+00   0.0000000e+00   9.0648971e-05   0.0000000e+00   7.0957151e-05  -3.0774620e-04  -8.2949704e-05   1.3308182e-04   0.0000000e+00   1.4584501e-04   9.9726402e-05  -5.1713057e-06  -2.0418974e-04  -1.3632882e-04   8.5093157e-05   9.0439669e-05   1.4871136e-05   6.1902565e-05   0.0000000e+00  -8.6308151e-06   4.1828510e-05   0.0000000e+00  -1.0982276e-04   1.2829850e-05  -1.1573299e-04  -4.7940479e-04   2.2830774e-05  -4.7057458e-04  -1.9019379e-05  -1.5206842e-05  -1.0306669e-04  -2.5652467e-04  -4.1110017e-05  -1.0667748e-04  -6.3578009e-05  -1.6711940e-04  -2.5099198e-04  -8.2308497e-05   0.0000000e+00   0.0000000e+00   7.9043714e-05   0.0000000e+00   1.4224567e-05  -1.2080883e-04  -2.1530623e-04   1.2704323e-05   0.0000000e+00   1.2517026e-05   2.3001039e-05   5.7058755e-05  -5.0259885e-05  -1.8542202e-04  -4.3236645e-05  -5.4502974e-05  -1.1325147e-04  -1.2393248e-04   0.0000000e+00  -2.0429359e-04  -2.7291978e-04   0.0000000e+00  -3.5198985e-04  -1.0827788e-04  -3.7810186e-04  -7.2314533e-04   3.2241052e-05  -6.2496529e-04  -9.8857397e-05  -2.7474100e-05  -9.1539377e-05  -3.2470196e-04  -6.9361270e-06  -7.4066461e-05  -2.7256146e-04  -4.3319108e-04  -2.2130507e-04  -3.7339840e-04   0.0000000e+00   0.0000000e+00  -1.2709772e-04   0.0000000e+00  -4.3750735e-04  -5.1741445e-04  -2.0296190e-04  -2.4541012e-04   0.0000000e+00  -2.1297993e-04  -5.4833838e-05  -3.8304299e-04  -5.0138863e-04  -3.6802854e-04  -1.8926283e-04  -2.6038287e-04  -2.4503051e-04  -1.4070123e-04   0.0000000e+00  -1.6759455e-04  -3.1206168e-04   0.0000000e+00  -2.3574808e-04  -2.5143786e-04  -1.6384225e-04  -4.3137784e-04  -4.1874583e-04  -6.0643443e-04  -1.8906867e-04  -1.6079897e-04  -2.7917326e-04  -4.5221929e-04  -4.4273172e-04  -6.4800784e-04  -3.0125601e-04  -1.0134007e-04  -5.8661211e-04  -3.6898343e-05   0.0000000e+00   0.0000000e+00  -3.7268171e-05   0.0000000e+00   2.5029058e-04   9.0594713e-05  -6.5411260e-06  -5.4137444e-05   0.0000000e+00   1.9426398e-04   3.2114332e-04   1.6278763e-04   2.0629650e-05   3.2127050e-05  -1.1844477e-04  -1.3606515e-04  -1.7853139e-04  -2.8080068e-04   0.0000000e+00  -3.6748542e-04  -6.2172502e-04   0.0000000e+00  -7.5188525e-04  -3.0996343e-04  -6.3900112e-04  -7.5936437e-04   6.8094334e-04  -3.4049088e-04  -4.0289243e-04  -2.4298209e-04  -9.4347305e-05  -2.5560536e-04   4.5031946e-04   2.9046158e-04  -2.5389719e-04  -5.5591537e-04  -3.5310841e-04   5.7210284e-04   0.0000000e+00   0.0000000e+00  -1.5211003e-04   0.0000000e+00   6.0557826e-04  -2.8247555e-05  -1.7678067e-04  -1.9261748e-04   0.0000000e+00  -1.8281980e-04   2.7922284e-04   3.6661009e-04   1.5302713e-04   1.1011043e-05  -1.0253747e-04  -2.0519020e-04  -3.6076403e-04  -3.3656635e-04   0.0000000e+00  -3.0073771e-04  -4.2836187e-04   0.0000000e+00  -6.4840448e-04  -1.3709648e-04  -3.5054122e-04  -7.0059391e-04   1.0962318e-03  -2.0441741e-04  -3.7280808e-04  -1.4465186e-04   8.1812562e-05  -1.6897968e-04   5.9088243e-04   3.9249024e-04   4.2973620e-05   1.0180760e-03   5.1055385e-06   1.0482945e-03   0.0000000e+00   0.0000000e+00  -2.1814561e-04   0.0000000e+00  -1.0087419e-04  -1.4903507e-04  -7.9970685e-05  -1.2094280e-04   0.0000000e+00  -8.2162741e-05   1.6734875e-04   5.4390864e-05  -2.8671015e-04  -2.8610853e-05  -5.3739955e-05  -7.5510541e-05  -2.5945104e-04  -5.1235510e-04   0.0000000e+00  -3.0244999e-04   6.9764757e-04   0.0000000e+00  -5.5317270e-04  -2.7887309e-05  -5.5052336e-04  -6.8229875e-04   5.5505467e-04   4.6103312e-04  -3.6032037e-04  -1.3044716e-04  -1.5682109e-04  -4.6249321e-04   2.0966999e-04   9.7708636e-05  -1.5441381e-04  -6.5863983e-04  -6.5087790e-04  -1.9977422e-04   0.0000000e+00   0.0000000e+00  -2.2956638e-04   0.0000000e+00  -1.9300370e-04  -2.1795149e-04  -3.7354409e-04  -3.0860058e-04   0.0000000e+00  -1.4216046e-04  -3.7575421e-05  -1.6723985e-05  -5.0899634e-05  -2.0634656e-04  -3.2849310e-04  -3.1505044e-04  -4.3867900e-04  -5.0183661e-04   0.0000000e+00  -2.8481435e-04  -3.9186456e-04   0.0000000e+00  -4.1334334e-04  -2.8840630e-04  -2.7672442e-04  -5.0366024e-04   1.8056817e-04  -8.4540380e-04  -3.0736424e-04  -2.6284648e-04  -1.4351360e-04  -1.9809912e-04   7.0664514e-05  -2.3203335e-04  -5.6396800e-04
   1.5916405e-04   1.9519680e-04   1.5326948e-04   0.0000000e+00   0.0000000e+00   5.1338626e-05   0.0000000e+00   1.8815320e-05  -4.3909848e-05   1.2856531e-04   1.7058178e-04   0.0000000e+00   1.0524803e-04   4.4028169e-05  -4.6826915e-05  -4.3952874e-05   9.7383692e-05   6.7129061e-05   8.2556229e-05   6.2171773e-05   6.2770934e-05   0.0000000e+00   7.4335725e-06   1.8595497e-04   0.0000000e+00   1.4453766e-04   9.5239515e-05   9.3063136e-05  -1.6022453e-05   1.2325792e-04   2.6650151e-04   8.1737922e-05   1.4898498e-05   1.9238388e-06  -6.6153327e-05   1.5722804e-05   1.2477925e-04   1.6502971e-04  -4.4351121e-04   1.4455187e-04  -4.9873696e-04   0.0000000e+00   0.0000000e+00   3.5406555e-04   0.0000000e+00   2.6514966e-05  -3.4269054e-04   1.7160191e-04  -7.7974648e-05   0.0000000e+00   1.8600717e-05   1.3825640e-04  -2.0190535e-04   5.2470131e-05  -4.5992500e-04   8.9770433e-05   2.3065407e-04   5.4194586e-04   6.8957820e-04   0.0000000e+00   4.9711393e-04   4.9527412e-04   0.0000000e+00   3.0467217e-04   1.5545499e-04   3.0748653e-04  -7.5334913e-04  -5.3330471e-04  -1.1140866e-03   3.6653310e-04   4.8516470e-04  -6.2869490e-05  -2.2857663e-04  -3.6327130e-04  -3.2808838e-04  -5.8860644e-04  -8.2241109e-05   5.0566761e-04  -2.2301659e-04   0.0000000e+00   0.0000000e+00   3.9402751e-05   0.0000000e+00   5.3455860e-04   2.5367136e-04   1.1690013e-04   1.4681608e-04   0.0000000e+00   8.4757360e-05   6.9880735e-04   7.8791242e-05  -1.1615516e-04  -1.2769086e-05   4.2117427e-05   7.3621725e-05   1.1958288e-04   2.3293741e-04   0.0000000e+00   2.0461751e-04   4.5296607e-04   0.0000000e+00   4.3979770e-04   1.8645226e-04   3.1720710e-04   7.2161425e-04   1.4736180e-04   1.8521023e-03   1.6981549e-04   2.4880675e-04   7.8482676e-05   5.1262171e-05   9.6992767e-05   1.1136342e-03   1.0939947e-03   1.5476323e-04  -1.2363533e-04   4.8204948e-04   0.0000000e+00   0.0000000e+00  -1.0418664e-04   0.0000000e+00   3.6103887e-04   1.5164938e-04  -5.2835620e-05   1.9148116e-05   0.0000000e+00   1.5038445e-04   2.2342886e-04   1.6870105e-04   2.7299162e-04   6.8019073e-05  -9.3388814e-05  -9.0740756e-05  -1.6079113e-04  -2.7527540e-04   0.0000000e+00  -2.7829482e-04  -1.1249309e-04   0.0000000e+00  -4.7778960e-04  -1.4926878e-04  -3.9621771e-04  -3.0603935e-04   5.0624829e-04   1.2098303e-04  -2.2651645e-04  -1.6156417e-04   1.1974597e-05  -5.5722135e-05   3.4171523e-04   3.1008996e-04   1.2672828e-05  -8.7062231e-05   1.7707323e-04   9.4533677e-05   0.0000000e+00   0.0000000e+00   9.2152506e-05   0.0000000e+00   6.7122246e-05  -3.2524077e-04  -9.2899859e-05   1.3348269e-04   0.0000000e+00   1.3484791e-04   9.3072020e-05  -4.2511417e-06  -2.3291678e-04  -1.4883296e-04   8.2824645e-05   8.5387051e-05   8.9003906e-06   5.1576864e-05   0.0000000e+00  -1.6761135e-05   4.7761417e-05   0.0000000e+00  -1.2020849e-04   1.1690441e-05  -1.3216243e-04  -4.9091857e-04   2.1435020e-05  -5.0125224e-04  -3.0472727e-05  -2.1501742e-05  -1.0600527e-04  -2.6983074e-04  -4.6327117e-05  -1.1315450e-04  -7.5815357e-05  -2.2776030e-04  -2.9435571e-04  -1.3623422e-04   0.0000000e+00   0.0000000e+00   8.6869953e-05   0.0000000e+00  -1.9207892e-05  -1.1951836e-04  -2.3391484e-04  -1.0177490e-05   0.0000000e+00  -7.4562720e-06  -1.0830556e-05   5.4454357e-05  -4.6671073e-05  -2.0388454e-04  -5.4018387e-05  -6.2590053e-05  -1.1213581e-04  -1.2882138e-04   0.0000000e+00  -2.1938343e-04  -3.1501046e-04   0.0000000e+00  -3.5971754e-04  -1.2570099e-04  -3.9177673e-04  -6.8240435e-04  -1.8042390e-05  -6.6032143e-04  -1.0571972e-04  -2.8521986e-05  -9.0497301e-05  -3.2683894e-04  -3.4365012e-05  -1.1036247e-04  -2.9518324e-04  -4.1991863e-04  -2.3688025e-04  -3.8454051e-04   0.0000000e+00   0.0000000e+00  -1.3652126e-04   0.0000000e+00  -4.4916903e-04  -5.0826135e-04  -1.9644686e-04  -2.5243499e-04   0.0000000e+00  -2.3002903e-04  -5.8393906e-05  -4.1499602e-04  -5.1061588e-04  -3.5821251e-04  -1.9702079e-04  -2.7469184e-04  -2.4687827e-04  -1.3910873e-04   0.0000000e+00  -1.6521547e-04  -3.1527205e-04   0.0000000e+00  -2.0836391e-04  -2.5724740e-04  -1.4726965e-04  -3.4177102e-04  -5.5965097e-04  -5.6561590e-04  -1.9529789e-04  -1.7100931e-04  -2.8190981e-04  -4.4326462e-04  -5.1851588e-04  -6.8791810e-04  -2.7586055e-04  -1.3658710e-04  -6.1698837e-04  -3.8230338e-05   0.0000000e+00   0.0000000e+00  -4.5648672e-05   0.0000000e+00   2.5164359e-04   7.4462851e-05  -1.9432797e-05  -5.9165726e-05   0.0000000e+00   1.7498746e-04   3.2161322e-04   1.8075337e-04   3.4156577e-05   2.1280800e-05  -1.2887150e-04  -1.5027247e-04  -2.0001639e-04  -2.9662654e-04   0.0000000e+00  -3.7627800e-04  -6.7712789e-04   0.0000000e+00  -7.9950323e-04  -3.3451228e-04  -6.6797893e-04  -8.0461871e-04   7.0176957e-04  -3.7213623e-04  -4.1447700e-04  -2.4674248e-04  -1.0446416e-04  -2.5924598e-04   4.6113152e-04   2.7589386e-04  -2.5177861e-04  -5.3758872e-04  -3.6463263e-04   5.6243463e-04   0.0000000e+00   0.0000000e+00  -1.6125457e-04   0.0000000e+00   6.4482986e-04   4.3720038e-06  -1.5283642e-04  -1.9125471e-04   0.0000000e+00  -1.7644443e-04   2.7630885e-04   3.6853290e-04   1.6415842e-04   8.6519588e-06  -1.0810390e-04  -2.2067761e-04  -3.7020427e-04  -3.4094215e-04   0.0000000e+00  -3.0118636e-04  -4.0207659e-04   0.0000000e+00  -6.5428898e-04  -1.5099741e-04  -3.5786432e-04  -6.8686584e-04   1.0634919e-03  -1.7434019e-04  -3.8185835e-04  -1.5189624e-04   9.0431217e-05  -1.5591487e-04   5.6554055e-04   4.1041072e-04   6.2754729e-05   1.0241647e-03   1.9825359e-05   1.0393759e-03   0.0000000e+00   0.0000000e+00  -1.9662331e-04   0.0000000e+00  -9.3223514e-05  -1.5067505e-04  -6.6937231e-05  -1.3841801e-04   0.0000000e+00  -7.3498631e-05   1.8501613e-04   5.6124951e-05  -2.8696279e-04  -3.0561157e-05  -3.8358005e-05  -6.1755197e-05  -2.3090438e-04  -4.8111658e-04   0.0000000e+00  -2.4701461e-04   7.3380021e-04   0.0000000e+00  -5.0263044e-04  -3.7663260e-06  -5.1265329e-04  -5.2385235e-04   5.3362078e-04   5.3761920e-04  -3.2811981e-04  -1.0396963e-04  -1.4252793e-04  -4.2291441e-04   1.8223468e-04   8.7947874e-05  -1.0623945e-04  -6.7345835e-04  -6.4626318e-04  -1.8398590e-04   0.0000000e+00   0.0000000e+00  -2.1761054e-04   0.0000000e+00  -1.8383796e-04  -2.0380442e-04  -3.6321492e-04  -3.0355042e-04   0.0000000e+00  -1.5582636e-04  -3.4554218e-05  -1.4200435e-05  -4.2885887e-05  -1.9976647e-04  -3.2214007e-04  -3.0082003e-04  -4.2846663e-04  -4.9252291e-04   0.0000000e+00  -2.6964881e-04  -3.8723659e-04   0.0000000e+00  -3.9398333e-04  -2.7722628e-04  -2.5830962e-04  -4.6942343e-04   1.8754216e-04  -8.6104455e-04  -2.9422618e-04  -2.4511062e-04  -1.3174129e-04  -1.7214453e-04   8.2466947e-05  -2.3373172e-04  -5.7505084e-04
   1.2827347e-04   1.6971491e-04   1.6042706e-04   0.0000000e+00   0.0000000e+00   5.4524960e-05   0.0000000e+00   2.8620943e-05  -4.3430903e-05   1.1776892e-04   1.7021246e-04   0.0000000e+00   1.0806171e-04   5.5330494e-05  -3.3993768e-05  -3.5909983e-05   9.7589245e-05   6.1534574e-05   7.6297218e-05   5.1879072e-05   5.0979644e-05   0.0000000e+00  -6.3375798e-06   1.6356227e-04   0.0000000e+00   1.0725609e-04   8.6316638e-05   5.4703522e-05  -6.5374744e-05   1.6033610e-04   2.2674258e-04   7.1080775e-05   1.0440679e-05  -6.7075224e-07  -8.2421289e-05   3.9282271e-05   1.3079087e-04   1.3971668e-04  -4.5700619e-04   1.5586968e-04  -5.6322580e-04   0.0000000e+00   0.0000000e+00   3.8251486e-04   0.0000000e+00   4.1617976e-05  -3.9493427e-04   1.5203005e-04  -8.8439068e-05   0.0000000e+00   1.5331205e-05   1.5522963e-04  -2.1466744e-04   1.1494867e-05  -4.7732413e-04   1.1731633e-04   2.3591085e-04   5.4021487e-04   7.0473517e-04   0.0000000e+00   5.3172982e-04   5.0966144e-04   0.0000000e+00   2.6614030e-04   1.4957630e-04   2.8627472e-04  -8.4002422e-04  -5.1396750e-04  -1.2193586e-03   3.8590636e-04   5.1217544e-04  -5.9735821e-05  -2.2834646e-04  -3.5774667e-04  -3.5181379e-04  -6.4846123e-04  -1.1681567e-04   5.4833461e-04  -2.5496505e-04   0.0000000e+00   0.0000000e+00   6.3731850e-05   0.0000000e+00   6.0744763e-04   2.8722076e-04   1.2044390e-04   1.5691718e-04   0.0000000e+00   1.1928454e-04   8.0602348e-04   9.0818575e-05  -1.0187728e-04  -1.6798475e-05   5.8713022e-05   8.7550425e-05   1.3118909e-04   2.5365874e-04   0.0000000e+00   2.0831270e-04   5.0684509e-04   0.0000000e+00   4.6777847e-04   2.0414442e-04   3.2541805e-04   6.9983028e-04   1.5969979e-04   1.8327127e-03   1.7470855e-04   2.4046426e-04   6.9193068e-05  -3.9228277e-06   9.4311460e-05   1.1369547e-03   1.1279293e-03   1.5441810e-04  -1.3455036e-04   4.7981037e-04   0.0000000e+00   0.0000000e+00  -1.0795036e-04   0.0000000e+00   3.6160781e-04   1.7067427e-04  -5.5207568e-05   4.4056964e-06   0.0000000e+00   1.5515130e-04   2.2567674e-04   1.6984184e-04   2.7978309e-04   7.5164745e-05  -1.0374370e-04  -1.0173104e-04  -1.6648384e-04  -2.8026234e-04   0.0000000e+00  -2.7730701e-04  -1.1792073e-04   0.0000000e+00  -4.6603668e-04  -1.5408381e-04  -3.9534597e-04  -2.2637188e-04   4.8875149e-04   1.8117662e-04  -2.3042358e-04  -1.7051538e-04   1.8172649e-05  -4.2505045e-05   3.3204634e-04   3.1472520e-04   3.2064565e-05  -9.0028760e-05   1.7723830e-04   9.2620956e-05   0.0000000e+00   0.0000000e+00   9.2725664e-05   0.0000000e+00   5.9251344e-05  -3.3757426e-04  -1.0016821e-04   1.3239438e-04   0.0000000e+00   1.2225860e-04   8.2596738e-05  -7.7886412e-06  -2.5818154e-04  -1.5888668e-04   7.9450666e-05   7.9380177e-05   3.7507964e-06   4.1340112e-05   0.0000000e+00  -2.2991559e-05   5.6078319e-05   0.0000000e+00  -1.2396801e-04   1.2555387e-05  -1.4372792e-04  -4.9000714e-04   1.7785413e-05  -5.2238818e-04  -3.9566301e-05  -2.7429230e-05  -1.0709553e-04  -2.7723070e-04  -5.4035146e-05  -1.1955638e-04  -8.4892493e-05  -2.8628276e-04  -3.3389888e-04  -1.9088703e-04   0.0000000e+00   0.0000000e+00   9.3487567e-05   0.0000000e+00  -5.6015034e-05  -1.1907289e-04  -2.4826663e-04  -3.0330005e-05   0.0000000e+00  -2.9809325e-05  -4.6015788e-05   4.8375238e-05  -4.4631310e-05  -2.1835538e-04  -6.3347770e-05  -6.9052832e-05  -1.0919803e-04  -1.3218106e-04   0.0000000e+00  -2.3176090e-04  -3.5389871e-04   0.0000000e+00  -3.6114802e-04  -1.4036826e-04  -3.9883356e-04  -6.3441810e-04  -6.9120399e-05  -6.8831670e-04  -1.1055848e-04  -2.9051499e-05  -8.8568547e-05  -3.2501269e-04  -6.1998962e-05  -1.4615986e-04  -3.1430139e-04  -3.9673626e-04  -2.5256926e-04  -4.0100070e-04   0.0000000e+00   0.0000000e+00  -1.4518253e-04   0.0000000e+00  -4.6425529e-04  -5.0047066e-04  -1.9101502e-04  -2.5997989e-04   0.0000000e+00  -2.4632747e-04  -6.6372954e-05  -4.4527449e-04  -5.1935012e-04  -3.5203854e-04  -2.0300312e-04  -2.8717775e-04  -2.4524561e-04  -1.3674037e-04   0.0000000e+00  -1.6221336e-04  -3.1764740e-04   0.0000000e+00  -1.7863761e-04  -2.6029419e-04  -1.3006369e-04  -2.6595958e-04  -6.9691686e-04  -5.3772390e-04  -2.0062473e-04  -1.7903163e-04  -2.8319238e-04  -4.2970672e-04  -5.9139560e-04  -7.3434045e-04  -2.4944939e-04  -1.6969515e-04  -6.3991621e-04  -4.1097007e-05   0.0000000e+00   0.0000000e+00  -5.4251769e-05   0.0000000e+00   2.4843925e-04   5.6316839e-05  -3.1803448e-05  -6.1893560e-05   0.0000000e+00   1.5211897e-04   3.1694625e-04   1.9650293e-04   4.7204943e-05   1.0329195e-05  -1.3849027e-04  -1.6367954e-04  -2.1991068e-04  -3.0971205e-04   0.0000000e+00  -3.8000130e-04  -7.2683495e-04   0.0000000e+00  -8.4106841e-04  -3.5735467e-04  -6.9147277e-04  -8.4822210e-04   7.1502977e-04  -4.0320628e-04  -4.2056719e-04  -2.4761757e-04  -1.1473675e-04  -2.6043438e-04   4.6544135e-04   2.5793256e-04  -2.4757401e-04  -5.2735017e-04  -3.7429550e-04   5.4177959e-04   0.0000000e+00   0.0000000e+00  -1.7047691e-04   0.0000000e+00   6.7574098e-04   3.7751653e-05  -1.2929675e-04  -1.9109735e-04   0.0000000e+00  -1.6965200e-04   2.6946149e-04   3.6796991e-04   1.7810503e-04   8.2732452e-06  -1.1219579e-04  -2.3425984e-04  -3.7531127e-04  -3.3958436e-04   0.0000000e+00  -2.9584688e-04  -3.7057780e-04   0.0000000e+00  -6.4619864e-04  -1.6128426e-04  -3.5126694e-04  -6.5892161e-04   1.0190713e-03  -1.3951592e-04  -3.8510862e-04  -1.5623254e-04   9.8618088e-05  -1.3812949e-04   5.3212858e-04   4.2535345e-04   8.1372486e-05   1.0210750e-03   4.2664183e-05   1.0328829e-03   0.0000000e+00   0.0000000e+00  -1.7486590e-04   0.0000000e+00  -8.3289176e-05  -1.5069404e-04  -4.2526651e-05  -1.5110994e-04   0.0000000e+00  -6.1774716e-05   2.0386317e-04   5.5203819e-05  -2.8272445e-04  -2.6129443e-05  -1.9819261e-05  -4.3512859e-05  -1.9710754e-04  -4.4354715e-04   0.0000000e+00  -1.8652640e-04   7.6595160e-04   0.0000000e+00  -4.4262932e-04   2.4411018e-05  -4.6401769e-04  -3.6574800e-04   5.1483274e-04   6.1600843e-04  -2.9111713e-04  -7.6028605e-05  -1.2618206e-04  -3.7977588e-04   1.5507205e-04   8.1184960e-05  -5.4909987e-05  -6.8583546e-04  -6.4005681e-04  -1.7033250e-04   0.0000000e+00   0.0000000e+00  -2.0493772e-04   0.0000000e+00  -1.7426229e-04  -1.8815950e-04  -3.5055121e-04  -2.9675793e-04   0.0000000e+00  -1.6900261e-04  -3.3167810e-05  -1.0999407e-05  -3.8673711e-05  -1.9468064e-04  -3.1303199e-04  -2.8492190e-04  -4.1614472e-04  -4.8033141e-04   0.0000000e+00  -2.5574674e-04  -3.8143447e-04   0.0000000e+00  -3.7429038e-04  -2.6582222e-04  -2.3994080e-04  -4.4426631e-04   1.8735292e-04  -8.8390814e-04  -2.8198393e-04  -2.2839817e-04  -1.2208850e-04  -1.5263373e-04   8.9558939e-05  -2.3985621e-04  -5.8858086e-04
   9.8386724e-05   1.4234432e-04   1.6771969e-04   0.0000000e+00   0.0000000e+00   5.6822458e-05   0.0000000e+00   3.7834065e-05  -4.1911011e-05   1.0597105e-04   1.6718081e-04   0.0000000e+00   1.0862390e-04   6.5266212e-05  -2.0562946e-05  -2.7579239e-05   9.7091339e-05   5.5012542e-05   6.8937554e-05   4.0754756e-05   3.8161179e-05   0.0000000e+00  -2.0099235e-05   1.3934707e-04   0.0000000e+00   6.8711480e-05   7.6051028e-05   1.6321769e-05  -1.1002494e-04   1.9444082e-04   1.8752371e-04   5.9418202e-05   5.3886070e-06  -2.9546626e-06  -9.6484312e-05   6.1934705e-05   1.3544387e-04   1.1409370e-04  -4.8647214e-04   1.7394792e-04  -6.2336318e-04   0.0000000e+00   0.0000000e+00   4.0968178e-04   0.0000000e+00   6.0503666e-05  -4.4105830e-04   1.3756209e-04  -9.4974608e-05   0.0000000e+00   1.9320303e-05   1.7114189e-04  -2.2725715e-04  -3.3230517e-05  -4.8801497e-04   1.4754905e-04   2.4388435e-04   5.4256516e-04   7.2344051e-04   0.0000000e+00   5.6949522e-04   5.2771611e-04   0.0000000e+00   2.3320199e-04   1.4169737e-04   2.7673121e-04  -9.0422256e-04  -4.9095271e-04  -1.3053890e-03   4.0927726e-04   5.4187786e-04  -5.4911735e-05  -2.2048283e-04  -3.5389364e-04  -3.6669961e-04  -6.9860299e-04  -1.4008154e-04   5.9020111e-04  -2.8372194e-04   0.0000000e+00   0.0000000e+00   8.8283420e-05   0.0000000e+00   6.6916748e-04   3.1539221e-04   1.2339197e-04   1.6437553e-04   0.0000000e+00   1.4671892e-04   8.9631206e-04   1.0243808e-04  -8.5411181e-05  -2.2691173e-05   7.8764084e-05   1.0080044e-04   1.4057562e-04   2.7152883e-04   0.0000000e+00   2.0509108e-04   5.6755658e-04   0.0000000e+00   4.8276706e-04   2.1641599e-04   3.2275744e-04   6.4628729e-04   1.6316914e-04   1.7349294e-03   1.7156231e-04   2.1936643e-04   5.6506403e-05  -6.9066179e-05   8.4155853e-05   1.1258059e-03   1.1276613e-03   1.5183879e-04  -1.4147993e-04   4.7236847e-04   0.0000000e+00   0.0000000e+00  -1.1166939e-04   0.0000000e+00   3.6071409e-04   1.8982122e-04  -5.6119253e-05  -1.0665216e-05   0.0000000e+00   1.5878370e-04   2.2772741e-04   1.6805668e-04   2.8455912e-04   8.3816776e-05  -1.1232028e-04  -1.1086240e-04  -1.7015352e-04  -2.8120158e-04   0.0000000e+00  -2.7161867e-04  -1.2113652e-04   0.0000000e+00  -4.4806955e-04  -1.5580151e-04  -3.8758471e-04  -1.4466732e-04   4.7023086e-04   2.4164454e-04  -2.3094611e-04  -1.7666589e-04   2.5190617e-05  -2.5838211e-05   3.2249914e-04   3.1752681e-04   5.4134243e-05  -8.8217837e-05   1.7655755e-04   8.6707639e-05   0.0000000e+00   0.0000000e+00   9.2678738e-05   0.0000000e+00   4.7818635e-05  -3.4410286e-04  -1.0441853e-04   1.3021165e-04   0.0000000e+00   1.0883612e-04   6.8669448e-05  -1.5885375e-05  -2.7863419e-04  -1.6612564e-04   7.5398001e-05   7.3020482e-05   2.4993506e-08   3.2184344e-05   0.0000000e+00  -2.6535191e-05   6.6829577e-05   0.0000000e+00  -1.2043003e-04   1.5722286e-05  -1.4942307e-04  -4.7611212e-04   1.1972357e-05  -5.3299007e-04  -4.5387919e-05  -3.2392279e-05  -1.0620199e-04  -2.7782209e-04  -6.3974102e-05  -1.2577966e-04  -8.9851408e-05  -3.4123937e-04  -3.6856251e-04  -2.4454739e-04   0.0000000e+00   0.0000000e+00   9.8394387e-05   0.0000000e+00  -9.4644882e-05  -1.1987969e-04  -2.5821707e-04  -4.6856264e-05   0.0000000e+00  -5.3828128e-05  -8.1287353e-05   3.8962161e-05  -4.4680236e-05  -2.2862835e-04  -7.0952324e-05  -7.3797029e-05  -1.0486922e-04  -1.3430177e-04   0.0000000e+00  -2.4122545e-04  -3.8863297e-04   0.0000000e+00  -3.5690812e-04  -1.5191127e-04  -3.9945451e-04  -5.8291817e-04  -1.1890013e-04  -7.0959457e-04  -1.1348584e-04  -2.9208399e-05  -8.6209148e-05  -3.1993176e-04  -8.8653661e-05  -1.8022981e-04  -3.2969312e-04  -3.6445569e-04  -2.6822519e-04  -4.2400518e-04   0.0000000e+00   0.0000000e+00  -1.5286138e-04   0.0000000e+00  -4.8395847e-04  -4.9650247e-04  -1.8754646e-04  -2.6799212e-04   0.0000000e+00  -2.6168869e-04  -7.9283733e-05  -4.7353122e-04  -5.2870840e-04  -3.5144087e-04  -2.0710380e-04  -2.9768578e-04  -2.4049009e-04  -1.3410505e-04   0.0000000e+00  -1.5921870e-04  -3.1971057e-04   0.0000000e+00  -1.4848141e-04  -2.6089027e-04  -1.1344923e-04  -2.1116728e-04  -8.2547069e-04  -5.2762970e-04  -2.0533206e-04  -1.8475522e-04  -2.8371148e-04  -4.1339979e-04  -6.5942929e-04  -7.8704225e-04  -2.2413671e-04  -1.9965357e-04  -6.5536334e-04  -4.5862566e-05   0.0000000e+00   0.0000000e+00  -6.2852574e-05   0.0000000e+00   2.4073127e-04   3.6865944e-05  -4.3084274e-05  -6.1947295e-05   0.0000000e+00   1.2604768e-04   3.0696058e-04   2.0925961e-04   5.8988747e-05  -5.1047058e-08  -1.4727955e-04  -1.7617925e-04  -2.3784280e-04  -3.2018811e-04   0.0000000e+00  -3.7939036e-04  -7.6989026e-04   0.0000000e+00  -8.7696925e-04  -3.7846661e-04  -7.1041920e-04  -8.8953512e-04   7.2131206e-04  -4.3334153e-04  -4.2170002e-04  -2.4587988e-04  -1.2486996e-04  -2.5940601e-04   4.6397425e-04   2.3746235e-04  -2.4259555e-04  -5.2675376e-04  -3.8127183e-04   5.1354197e-04   0.0000000e+00   0.0000000e+00  -1.7964891e-04   0.0000000e+00   6.9800020e-04   7.1123196e-05  -1.0646958e-04  -1.9227486e-04   0.0000000e+00  -1.6290448e-04   2.5897453e-04   3.6586591e-04   1.9437157e-04   1.0066856e-05  -1.1435417e-04  -2.4513810e-04  -3.7565060e-04  -3.3241478e-04   0.0000000e+00  -2.8497195e-04  -3.3584978e-04   0.0000000e+00  -6.2318090e-04  -1.6713812e-04  -3.2923974e-04  -6.1507744e-04   9.6425930e-04  -9.9009816e-05  -3.8217017e-04  -1.5715154e-04   1.0639520e-04  -1.1606998e-04   4.9187980e-04   4.3687030e-04   9.9024148e-05   1.0120265e-03   7.3488953e-05   1.0326117e-03   0.0000000e+00   0.0000000e+00  -1.5392892e-04   0.0000000e+00  -7.1350381e-05  -1.4901846e-04  -6.8549396e-06  -1.5768457e-04   0.0000000e+00  -4.6738243e-05   2.2407489e-04   5.1925203e-05  -2.7424775e-04  -1.4948735e-05   1.5390524e-06  -2.1207763e-05  -1.5957256e-04  -4.0205061e-04   0.0000000e+00  -1.2443033e-04   7.9540264e-04   0.0000000e+00  -3.7684752e-04   5.6003593e-05  -4.0754993e-04  -2.1903813e-04   5.0073001e-04   6.9399661e-04  -2.5113188e-04  -4.7717634e-05  -1.0858300e-04  -3.3584909e-04   1.2991290e-04   7.8758609e-05  -2.4557971e-06  -6.9655208e-04  -6.3339929e-04  -1.6005004e-04   0.0000000e+00   0.0000000e+00  -1.9242035e-04   0.0000000e+00  -1.6532508e-04  -1.7220860e-04  -3.3701937e-04  -2.8919498e-04   0.0000000e+00  -1.8185486e-04  -3.3846648e-05  -7.3962361e-06  -3.8730354e-05  -1.9171334e-04  -3.0226864e-04  -2.6855036e-04  -4.0300741e-04  -4.6646977e-04   0.0000000e+00  -2.4389178e-04  -3.7530110e-04   0.0000000e+00  -3.5545575e-04  -2.5504014e-04  -2.2260635e-04  -4.2930572e-04   1.7968246e-04  -9.1389511e-04  -2.7163861e-04  -2.1393963e-04  -1.1510322e-04  -1.4044400e-04   9.1443936e-05  -2.5046364e-04  -6.0459539e-04
   7.1114585e-05   1.1421421e-04   1.7505569e-04   0.0000000e+00   0.0000000e+00   5.8143965e-05   0.0000000e+00   4.6213225e-05  -3.9202232e-05   9.3802977e-05   1.6162638e-04   0.0000000e+00   1.0688460e-04   7.3463085e-05  -7.0186723e-06  -1.9277955e-05   9.6017545e-05   4.7765664e-05   6.0763301e-05   2.9264108e-05   2.4858610e-05   0.0000000e+00  -3.3256747e-05   1.1438474e-04   0.0000000e+00   3.0538897e-05   6.4837418e-05  -2.0486966e-05  -1.4797320e-04   2.2417989e-04   1.5070916e-04   4.7249561e-05  -8.1269560e-08  -4.8212729e-06  -1.0779632e-04   8.2729079e-05   1.3860764e-04   8.9358879e-05  -5.3257491e-04   1.9851204e-04  -6.7688431e-04   0.0000000e+00   0.0000000e+00   4.3574351e-04   0.0000000e+00   8.3070196e-05  -4.7911444e-04   1.2979387e-04  -9.7185185e-05   0.0000000e+00   3.1387839e-05   1.8618498e-04  -2.3900238e-04  -7.8601278e-05  -4.9139686e-04   1.7963401e-04   2.5539980e-04   5.5104065e-04   7.4708286e-04   0.0000000e+00   6.1005347e-04   5.4980203e-04   0.0000000e+00   2.0792618e-04   1.3232091e-04   2.8030834e-04  -9.4262222e-04  -4.6603539e-04  -1.3701203e-03   4.3678335e-04   5.7460715e-04  -4.8250476e-05  -2.0518237e-04  -3.5229659e-04  -3.7171784e-04  -7.3778373e-04  -1.4935090e-04   6.3131434e-04  -3.0785859e-04   0.0000000e+00   0.0000000e+00   1.1193613e-04   0.0000000e+00   7.1731232e-04   3.3775100e-04   1.2660049e-04   1.6931884e-04   0.0000000e+00   1.6607850e-04   9.6459809e-04   1.1352928e-04  -6.7626139e-05  -3.0235546e-05   1.0240402e-04   1.1293287e-04   1.4794843e-04   2.8635513e-04   0.0000000e+00   1.9412447e-04   6.3501682e-04   0.0000000e+00   4.8315490e-04   2.2203798e-04   3.0846169e-04   5.6371157e-04   1.5617398e-04   1.5587236e-03   1.5975808e-04   1.8520522e-04   4.1036582e-05  -1.4146649e-04   6.6106472e-05   1.0794095e-03   1.0919211e-03   1.4779853e-04  -1.4403383e-04   4.6005108e-04   0.0000000e+00   0.0000000e+00  -1.1549147e-04   0.0000000e+00   3.5910003e-04   2.0829389e-04  -5.5714030e-05  -2.5691700e-05   0.0000000e+00   1.6177440e-04   2.3019020e-04   1.6367105e-04   2.8771653e-04   9.3489519e-05  -1.1888572e-04  -1.1786192e-04  -1.7179585e-04  -2.7822452e-04   0.0000000e+00  -2.6155570e-04  -1.2189670e-04   0.0000000e+00  -4.2497657e-04  -1.5457170e-04  -3.7327355e-04  -6.4972046e-05   4.5206088e-04   3.0012751e-04  -2.2837627e-04  -1.7984943e-04   3.2732245e-05  -6.2674000e-06   3.1386398e-04   3.1882044e-04   7.8461919e-05  -8.1807101e-05   1.7587244e-04   7.6971217e-05   0.0000000e+00   0.0000000e+00   9.2342951e-05   0.0000000e+00   3.3471339e-05  -3.4442681e-04  -1.0545100e-04   1.2738273e-04   0.0000000e+00   9.5364909e-05   5.1825723e-05  -2.8385728e-05  -2.9316833e-04  -1.7028628e-04   7.1147733e-05   6.6950900e-05  -1.7108477e-06   2.5095559e-05   0.0000000e+00  -2.6693736e-05   8.0032306e-05   0.0000000e+00  -1.0919624e-04   2.1374433e-05  -1.4840323e-04  -4.4914638e-04   4.0952789e-06  -5.3244950e-04  -4.7171325e-05  -3.5827760e-05  -1.0326352e-04  -2.7096024e-04  -7.5781529e-05  -1.3168882e-04  -8.9900475e-05  -3.9154838e-04  -3.9755904e-04  -2.9554810e-04   0.0000000e+00   0.0000000e+00   1.0116156e-04   0.0000000e+00  -1.3344524e-04  -1.2226710e-04  -2.6387216e-04  -5.9118926e-05   0.0000000e+00  -7.8680973e-05  -1.1542400e-04   2.6544777e-05  -4.7239711e-05  -2.3477380e-04  -7.6666896e-05  -7.6822416e-05  -9.9629345e-05  -1.3551650e-04   0.0000000e+00  -2.4775079e-04  -4.1846305e-04   0.0000000e+00  -3.4788321e-04  -1.6013970e-04  -3.9407652e-04  -5.3173943e-04  -1.6543757e-04  -7.2509023e-04  -1.1471324e-04  -2.9157561e-05  -8.3913171e-05  -3.1244038e-04  -1.1324735e-04  -2.1145774e-04  -3.4123067e-04  -3.2449552e-04  -2.8361193e-04  -4.5408265e-04   0.0000000e+00   0.0000000e+00  -1.5936429e-04   0.0000000e+00  -5.0893677e-04  -4.9842065e-04  -1.8663773e-04  -2.7619105e-04   0.0000000e+00  -2.7588098e-04  -9.7158549e-05  -4.9956367e-04  -5.3967216e-04  -3.5772890e-04  -2.0928009e-04  -3.0611082e-04  -2.3315917e-04  -1.3169971e-04   0.0000000e+00  -1.5681053e-04  -3.2190243e-04   0.0000000e+00  -1.1984447e-04  -2.5946953e-04  -9.8610552e-05  -1.8287726e-04  -9.4087204e-04  -5.3850982e-04  -2.0969922e-04  -1.8821807e-04  -2.8416288e-04  -3.9644675e-04  -7.2108669e-04  -8.4493373e-04  -2.0182724e-04  -2.2559329e-04  -6.6352377e-04  -5.2723037e-05   0.0000000e+00   0.0000000e+00  -7.1224676e-05   0.0000000e+00   2.2873582e-04   1.6845853e-05  -5.2769983e-05  -5.9092081e-05   0.0000000e+00   9.7268562e-05   2.9170931e-04   2.1837766e-04   6.8755003e-05  -9.2201906e-06  -1.5523058e-04  -1.8769656e-04  -2.5351653e-04  -3.2826760e-04   0.0000000e+00  -3.7541994e-04  -8.0562163e-04   0.0000000e+00  -9.0783462e-04  -3.9789162e-04  -7.2594987e-04  -9.2785759e-04   7.2148100e-04  -4.6216008e-04  -4.1866605e-04  -2.4188307e-04  -1.3453642e-04  -2.5642050e-04   4.5779391e-04   2.1540563e-04  -2.3814983e-04  -5.3565927e-04  -3.8438354e-04   4.8193437e-04   0.0000000e+00   0.0000000e+00  -1.8853900e-04   0.0000000e+00   7.1183113e-04   1.0392639e-04  -8.4049396e-05  -1.9450541e-04   0.0000000e+00  -1.5657750e-04   2.4522671e-04   3.6310464e-04   2.1212153e-04   1.4135673e-05  -1.1405031e-04  -2.5241840e-04  -3.7074656e-04  -3.1946403e-04   0.0000000e+00  -2.6897485e-04  -2.9975489e-04   0.0000000e+00  -5.8470411e-04  -1.6779709e-04  -2.9083441e-04  -5.5398816e-04   9.0037210e-04  -5.1483508e-05  -3.7277213e-04  -1.5424413e-04   1.1389006e-04  -9.0325033e-05   4.4609908e-04   4.4463663e-04   1.1645101e-04   1.0005709e-03   1.1172649e-04   1.0417337e-03   0.0000000e+00   0.0000000e+00  -1.3462463e-04   0.0000000e+00  -5.7763109e-05  -1.4562767e-04   3.9219582e-05  -1.5709320e-04   0.0000000e+00  -2.8233847e-05   2.4574949e-04   4.6810189e-05  -2.6186916e-04   2.9054707e-06   2.5286621e-05   4.5348301e-06  -1.1992902e-04  -3.5912522e-04   0.0000000e+00  -6.4367122e-05   8.2356964e-04   0.0000000e+00  -3.0926708e-04   9.0177854e-05  -3.4664942e-04  -9.4278102e-05   4.9278870e-04   7.6922155e-04  -2.1004357e-04  -2.0028957e-05  -9.0545955e-05  -2.9383103e-04   1.0825306e-04   8.1723043e-05   4.9172632e-05  -7.0647059e-04  -6.2740420e-04  -1.5407992e-04   0.0000000e+00   0.0000000e+00  -1.8089895e-04   0.0000000e+00  -1.5804919e-04  -1.5714495e-04  -3.2413685e-04  -2.8189705e-04   0.0000000e+00  -1.9467484e-04  -3.6891951e-05  -3.7391215e-06  -4.3210700e-05  -1.9130176e-04  -2.9109555e-04  -2.5292175e-04  -3.9039559e-04  -4.5220546e-04   0.0000000e+00  -2.3470369e-04  -3.6972557e-04   0.0000000e+00  -3.3857475e-04  -2.4569315e-04  -2.0721185e-04  -4.2483426e-04   1.6468239e-04  -9.5030015e-04  -2.6403668e-04  -2.0281180e-04  -1.1112311e-04  -1.3590882e-04   8.7953820e-05  -2.6526866e-04  -6.2292068e-04
   4.7830344e-05   8.6395662e-05   1.8223052e-04   0.0000000e+00   0.0000000e+00   5.8435165e-05   0.0000000e+00   5.3538815e-05  -3.5221723e-05   8.1858027e-05   1.5376152e-04   0.0000000e+00   1.0287117e-04   7.9618217e-05   6.1414501e-06  -1.1311157e-05   9.4477183e-05   4.0013958e-05   5.2079860e-05   1.7884064e-05   1.1640000e-05   0.0000000e+00  -4.5229246e-05   8.9716893e-05   0.0000000e+00  -5.6680734e-06   5.3101618e-05  -5.4232645e-05  -1.7764638e-04   2.4832424e-04   1.1787707e-04   3.5076193e-05  -5.7652391e-06  -6.1869098e-06  -1.1592569e-04   1.0079947e-04   1.4014767e-04   6.6620118e-05  -5.9426912e-04   2.2893555e-04  -7.2203610e-04   0.0000000e+00   0.0000000e+00   4.6087823e-04   0.0000000e+00   1.0895291e-04  -5.0759425e-04   1.2981970e-04  -9.5071227e-05   0.0000000e+00   5.1853247e-05   2.0056688e-04  -2.4921246e-04  -1.2149597e-04  -4.8719937e-04   2.1260548e-04   2.7106658e-04   5.6718223e-04   7.7658375e-04   0.0000000e+00   6.5284986e-04   5.7587170e-04   0.0000000e+00   1.9192327e-04   1.2205887e-04   2.9764559e-04  -9.5293499e-04  -4.4112547e-04  -1.4125285e-03   4.6823160e-04   6.1040402e-04  -3.9713872e-05  -1.8309278e-04  -3.5330167e-04  -3.6648874e-04  -7.6533697e-04  -1.4251933e-04   6.7200545e-04  -3.2606210e-04   0.0000000e+00   0.0000000e+00   1.3367851e-04   0.0000000e+00   7.5039872e-04   3.5433846e-04   1.3114372e-04   1.7215021e-04   0.0000000e+00   1.7717442e-04   1.0071949e-03   1.2398859e-04  -4.9399917e-05  -3.9069091e-05   1.2967474e-04   1.2363784e-04   1.5378548e-04   2.9822138e-04   0.0000000e+00   1.7497683e-04   7.0892704e-04   0.0000000e+00   4.6812492e-04   2.2012289e-04   2.8243734e-04   4.5692709e-04   1.3762710e-04   1.3093415e-03   1.3916284e-04   1.3839084e-04   2.3620850e-05  -2.1785510e-04   4.0171670e-05   9.9916510e-04   1.0216966e-03   1.4285894e-04  -1.4209773e-04   4.4343866e-04   0.0000000e+00   0.0000000e+00  -1.1952567e-04   0.0000000e+00   3.5740148e-04   2.2526171e-04  -5.4223959e-05  -4.0298350e-05   0.0000000e+00   1.6467294e-04   2.3360809e-04   1.5715016e-04   2.8969921e-04   1.0357320e-04  -1.2331552e-04  -1.2256289e-04  -1.7149165e-04  -2.7161995e-04   0.0000000e+00  -2.4764812e-04  -1.2010148e-04   0.0000000e+00  -3.9801647e-04  -1.5069740e-04  -3.5304630e-04   8.8689829e-06   4.3544124e-04   3.5452256e-04  -2.2313121e-04  -1.8003436e-04   4.0460254e-05   1.5476118e-05   3.0676758e-04   3.1899126e-04   1.0443812e-04  -7.1157048e-05   1.7610084e-04   6.3766221e-05   0.0000000e+00   0.0000000e+00   9.2041060e-05   0.0000000e+00   1.6963564e-05  -3.3842981e-04  -1.0320552e-04   1.2438092e-04   0.0000000e+00   8.2590372e-05   3.2725014e-05  -4.4897903e-05  -3.0099104e-04  -1.7121714e-04   6.7203604e-05   6.1810902e-05  -9.7368734e-07   2.0978962e-05   0.0000000e+00  -2.2912908e-05   9.5659216e-05   0.0000000e+00  -9.0161217e-05   2.9570502e-05  -1.4003623e-04  -4.0952382e-04  -5.7440553e-06  -5.2057510e-04  -4.4353180e-05  -3.7261782e-05  -9.8300556e-05  -2.5631500e-04  -8.9027178e-05  -1.3710960e-04  -8.4473287e-05  -4.3641313e-04  -4.2040627e-04  -3.4233629e-04   0.0000000e+00   0.0000000e+00   1.0147538e-04   0.0000000e+00  -1.7077140e-04  -1.2646953e-04  -2.6556901e-04  -6.6766720e-05   0.0000000e+00  -1.0346227e-04  -1.4730547e-04   1.1616526e-05  -5.2579181e-05  -2.3712403e-04  -8.0441247e-05  -7.8217171e-05  -9.3971466e-05  -1.3616659e-04   0.0000000e+00  -2.5149361e-04  -4.4286438e-04   0.0000000e+00  -3.3516196e-04  -1.6504433e-04  -3.8337166e-04  -4.8455579e-04  -2.0703849e-04  -7.3592507e-04  -1.1453226e-04  -2.9067271e-05  -8.2174392e-05  -3.0346003e-04  -1.3486507e-04  -2.3888846e-04  -3.4889028e-04  -2.7883074e-04  -2.9841245e-04  -4.9094810e-04   0.0000000e+00   0.0000000e+00  -1.6452116e-04   0.0000000e+00  -5.3922856e-04  -5.0770034e-04  -1.8853491e-04  -2.8408809e-04   0.0000000e+00  -2.8861677e-04  -1.1950983e-04  -5.2334883e-04  -5.5299898e-04  -3.7143846e-04  -2.0954772e-04  -3.1239746e-04  -2.2395733e-04  -1.2996020e-04   0.0000000e+00  -1.5548267e-04  -3.2452043e-04   0.0000000e+00  -9.4558835e-05  -2.5654831e-04  -8.6611486e-05  -1.8429271e-04  -1.0395431e-03  -5.7151775e-04  -2.1397224e-04  -1.8961354e-04  -2.8519665e-04  -3.8106526e-04  -7.7533309e-04  -9.0611126e-04  -1.8407083e-04  -2.4682323e-04  -6.6478304e-04  -6.1678138e-05   0.0000000e+00   0.0000000e+00  -7.9147803e-05   0.0000000e+00   2.1282668e-04  -3.0126014e-06  -6.0457184e-05  -5.3263759e-05   0.0000000e+00   6.6390787e-05   2.7148200e-04   2.2339563e-04   7.5837694e-05  -1.6623801e-05  -1.6234372e-04  -1.9817409e-04  -2.6671063e-04  -3.3422561e-04   0.0000000e+00  -3.6923310e-04  -8.3362810e-04   0.0000000e+00  -9.3445127e-04  -4.1571218e-04  -7.3928288e-04  -9.6249930e-04   7.1659180e-04  -4.8927590e-04  -4.1245455e-04  -2.3604194e-04  -1.4339904e-04  -2.5175009e-04   4.4821531e-04   1.9265547e-04  -2.3541867e-04  -5.5216840e-04  -3.8215198e-04   4.5161045e-04   0.0000000e+00   0.0000000e+00  -1.9679031e-04   0.0000000e+00   7.1795918e-04   1.3581752e-04  -6.1127321e-05  -1.9707311e-04   0.0000000e+00  -1.5093644e-04   2.2867637e-04   3.6041326e-04   2.3025374e-04   2.0494220e-05  -1.1071604e-04  -2.5515768e-04  -3.6009273e-04  -3.0085192e-04   0.0000000e+00  -2.4838164e-04  -2.6384503e-04   0.0000000e+00  -5.3072689e-04  -1.6260034e-04  -2.3575019e-04  -4.7480575e-04   8.2872811e-04   4.6516106e-06  -3.5677980e-04  -1.4720230e-04   1.2131128e-04  -6.1595943e-05   3.9608038e-04   4.4848372e-04   1.3489057e-04   9.9033064e-04   1.5639432e-04   1.0625559e-03   0.0000000e+00   0.0000000e+00  -1.1746783e-04   0.0000000e+00  -4.2944465e-05  -1.4056218e-04   9.4121553e-05  -1.4863549e-04   0.0000000e+00  -6.2278004e-06   2.6887562e-04   4.0567952e-05  -2.4597967e-04   2.6900974e-05   5.0919946e-05   3.2934038e-05  -7.9806741e-05  -3.1718194e-04   0.0000000e+00  -9.8999397e-06   8.5176019e-04   0.0000000e+00  -2.4389368e-04   1.2594122e-04  -2.8494199e-04  -4.3798093e-07   4.9182666e-04   8.3928129e-04  -1.6966965e-04   6.2141638e-06  -7.2861749e-05  -2.5617727e-04   9.1268639e-05   9.0749203e-05   9.8228410e-05  -7.1648771e-04  -6.2311772e-04  -1.5302480e-04   0.0000000e+00   0.0000000e+00  -1.7114921e-04   0.0000000e+00  -1.5335446e-04  -1.4410266e-04  -3.1340609e-04  -2.7590086e-04   0.0000000e+00  -2.0786724e-04  -4.2457682e-05  -4.3062715e-07  -5.1963975e-05  -1.9367609e-04  -2.8083969e-04  -2.3922987e-04  -3.7962256e-04  -4.3881637e-04   0.0000000e+00  -2.2863650e-04  -3.6560455e-04   0.0000000e+00  -3.2461982e-04  -2.3852688e-04  -1.9455183e-04  -4.3045765e-04   1.4296998e-04  -9.9197307e-04  -2.5984412e-04  -1.9589501e-04  -1.1028126e-04  -1.3886228e-04   7.9267607e-05  -2.8372896e-04  -6.4324923e-04
   2.9601033e-05   5.9855865e-05   1.8892640e-04   0.0000000e+00   0.0000000e+00   5.7678592e-05   0.0000000e+00   5.9615263e-05  -2.9975632e-05   7.0661587e-05   1.4386469e-04   0.0000000e+00   9.6683413e-05   8.3513423e-05   1.8427651e-05  -3.9543160e-06   9.2549896e-05   3.1990019e-05   4.3197507e-05   7.0790051e-06  -9.2857606e-07   0.0000000e+00  -5.5478106e-05   6.6297624e-05   0.0000000e+00  -3.8436597e-05   4.1282180e-05  -8.3595170e-05  -1.9796734e-04   2.6587460e-04   9.0255477e-05   2.3378327e-05  -1.1440898e-05  -6.9933155e-06  -1.2057123e-04   1.1541174e-04   1.3993643e-04   4.6844190e-05  -6.6884091e-04   2.6430775e-04  -7.5768827e-04   0.0000000e+00   0.0000000e+00   4.8521829e-04   0.0000000e+00   1.3752875e-04  -5.2551497e-04   1.3814511e-04  -8.9018974e-05   0.0000000e+00   8.0493757e-05   2.1444905e-04  -2.5721662e-04  -1.5904474e-04  -4.7551825e-04   2.4541104e-04   2.9122956e-04   5.9191206e-04   8.1232380e-04   0.0000000e+00   6.9719179e-04   6.0546110e-04   0.0000000e+00   1.8629315e-04   1.1158976e-04   3.2857506e-04  -9.3401815e-04  -4.1813115e-04  -1.4325795e-03   5.0310624e-04   6.4900680e-04  -2.9395307e-05  -1.5529409e-04  -3.5699104e-04  -3.5131272e-04  -7.8118326e-04  -1.1819898e-04   7.1288534e-04  -3.3722295e-04   0.0000000e+00   0.0000000e+00   1.5268407e-04   0.0000000e+00   7.6800095e-04   3.6565319e-04   1.3821607e-04   1.7353663e-04   0.0000000e+00   1.8063551e-04   1.0221858e-03   1.3372074e-04  -3.1556438e-05  -4.8700286e-05   1.6050984e-04   1.3274700e-04   1.5880252e-04   3.0747570e-04   0.0000000e+00   1.4765933e-04   7.8880850e-04   0.0000000e+00   4.3776270e-04   2.1019371e-04   2.4528496e-04   3.3242444e-04   1.0704683e-04   9.9678501e-04   1.1016210e-04   8.0030732e-05   5.2652971e-06  -2.9460905e-04   6.8138203e-06   8.8855960e-04   9.2019171e-04   1.3731519e-04  -1.3585709e-04   4.2344669e-04   0.0000000e+00   0.0000000e+00  -1.2383220e-04   0.0000000e+00   3.5611231e-04   2.3992439e-04  -5.1946447e-05  -5.4126260e-05   0.0000000e+00   1.6803705e-04   2.3841943e-04   1.4906569e-04   2.9096192e-04   1.1338647e-04  -1.2559951e-04  -1.2491229e-04  -1.6940996e-04  -2.6183127e-04   0.0000000e+00  -2.3061655e-04  -1.1581574e-04   0.0000000e+00  -3.6856650e-04  -1.4461656e-04  -3.2782587e-04   7.3432451e-05   4.2134965e-04   4.0300728e-04  -2.1573003e-04  -1.7732785e-04   4.8016957e-05   3.8506699e-05   3.0164901e-04   3.1847992e-04   1.3126662e-04  -5.6761923e-05   1.7815906e-04   4.7595582e-05   0.0000000e+00   0.0000000e+00   9.2054590e-05   0.0000000e+00  -9.0872005e-07  -3.2629500e-04  -9.7759328e-05   1.2166718e-04   0.0000000e+00   7.1167418e-05   1.2105495e-05  -6.4827136e-05  -3.0167867e-04  -1.6887037e-04   6.4059195e-05   5.8193947e-05   2.5977223e-06   2.0589653e-05   0.0000000e+00  -1.4832713e-05   1.1362549e-04   0.0000000e+00  -6.3530729e-05   4.0230945e-05  -1.2394679e-04  -3.5819588e-04  -1.7456003e-05  -4.9760633e-04  -3.6614088e-05  -3.6353267e-05  -9.1417464e-05  -2.3391350e-04  -1.0324141e-04  -1.4183826e-04  -7.3275566e-05  -4.7524825e-04  -4.3694190e-04  -3.8354427e-04   0.0000000e+00   0.0000000e+00   9.9170403e-05   0.0000000e+00  -2.0508434e-04  -1.3261949e-04  -2.6384623e-04  -6.9740765e-05   0.0000000e+00  -1.2724178e-04  -1.7595509e-04  -5.1963132e-06  -6.0796035e-05  -2.3624354e-04  -8.2338880e-05  -7.8147712e-05  -8.8369376e-05  -1.3657350e-04   0.0000000e+00  -2.5278074e-04  -4.6155102e-04   0.0000000e+00  -3.1997135e-04  -1.6679219e-04  -3.6822205e-04  -4.4462051e-04  -2.4234704e-04  -7.4330261e-04  -1.1329271e-04  -2.9093438e-05  -8.1446093e-05  -2.9392825e-04  -1.5281070e-04  -2.6176489e-04  -3.5275566e-04  -2.2990318e-04  -3.1222534e-04  -5.3349112e-04   0.0000000e+00   0.0000000e+00  -1.6821232e-04   0.0000000e+00  -5.7422266e-04  -5.2507859e-04  -1.9309879e-04  -2.9101866e-04   0.0000000e+00  -2.9956132e-04  -1.4531596e-04  -5.4503770e-04  -5.6917704e-04  -3.9227386e-04  -2.0799362e-04  -3.1654726e-04  -2.1369324e-04  -1.2923197e-04   0.0000000e+00  -1.5559761e-04  -3.2771071e-04   0.0000000e+00  -7.4228573e-05  -2.5270143e-04  -7.8320692e-05  -2.1601549e-04  -1.1189157e-03  -6.2567463e-04  -2.1835033e-04  -1.8925675e-04  -2.8735554e-04  -3.6942634e-04  -8.2166836e-04  -9.6799194e-04  -1.7194902e-04  -2.6285575e-04  -6.5967704e-04  -7.2525378e-05   0.0000000e+00   0.0000000e+00  -8.6421449e-05   0.0000000e+00   1.9353155e-04  -2.2022720e-05  -6.5859184e-05  -4.4588207e-05   0.0000000e+00   3.4153900e-05   2.4679970e-04   2.2407786e-04   7.9699445e-05  -2.1832494e-05  -1.6861065e-04  -2.0756522e-04  -2.7727410e-04  -3.3836949e-04   0.0000000e+00  -3.6205047e-04  -8.5376035e-04   0.0000000e+00  -9.5766032e-04  -4.3203319e-04  -7.5160635e-04  -9.9283685e-04   7.0779541e-04  -5.1432677e-04  -4.0417279e-04  -2.2881122e-04  -1.5113229e-04  -2.4566450e-04   4.3669253e-04   1.7002484e-04  -2.3535900e-04  -5.7279061e-04  -3.7289991e-04   4.2723998e-04   0.0000000e+00   0.0000000e+00  -2.0392514e-04   0.0000000e+00   7.1752952e-04   1.6667241e-04  -3.6284509e-05  -1.9887166e-04   0.0000000e+00  -1.4611061e-04   2.0985478e-04   3.5828973e-04   2.4750265e-04   2.9062679e-05  -1.0378643e-04  -2.5243471e-04  -3.4318697e-04  -2.7675912e-04   0.0000000e+00  -2.2379006e-04  -2.2924974e-04   0.0000000e+00  -4.6174294e-04  -1.5102982e-04  -1.6439441e-04  -3.7732699e-04   7.5061757e-04   7.1045917e-05  -3.3420508e-04  -1.3584353e-04   1.2893668e-04  -3.0670315e-05   3.4303597e-04   4.4843470e-04   1.5597559e-04   9.8473238e-04   2.0615562e-04   1.0963546e-03   0.0000000e+00   0.0000000e+00  -1.0265370e-04   0.0000000e+00  -2.7350744e-05  -1.3392809e-04   1.5562018e-04  -1.3200594e-04   0.0000000e+00   1.9185294e-05   2.9331081e-04   3.4044697e-05  -2.2699912e-04   5.6056729e-05   7.7885124e-05   6.3103957e-05  -4.0719611e-05  -2.7836932e-04   0.0000000e+00   3.5789403e-05   8.8097766e-04   0.0000000e+00  -1.8446085e-04   1.6217520e-04  -2.2601583e-04   5.6110759e-05   4.9795187e-04   9.0186086e-04  -1.3166361e-04   3.0407601e-05  -5.6252136e-05  -2.2496439e-04   7.9757426e-05   1.0604752e-04   1.4327848e-04  -7.2748792e-04  -6.2148416e-04  -1.5713260e-04   0.0000000e+00   0.0000000e+00  -1.6385020e-04   0.0000000e+00  -1.5201073e-04  -1.3410768e-04  -3.0620915e-04  -2.7218600e-04   0.0000000e+00  -2.2189741e-04  -5.0548094e-05   2.1176751e-06  -6.4561241e-05  -1.9887612e-04  -2.7282369e-04  -2.2857706e-04  -3.7192184e-04  -4.2751836e-04   0.0000000e+00  -2.2598263e-04  -3.6378119e-04   0.0000000e+00  -3.1441051e-04  -2.3418493e-04  -1.8529208e-04  -4.4527671e-04   1.1559403e-04  -1.0375177e-03  -2.5952343e-04  -1.9382880e-04  -1.1252505e-04  -1.4872643e-04   6.5899664e-05  -3.0510903e-04  -6.6522439e-04
   1.7143482e-05   3.5421230e-05   1.9471857e-04   0.0000000e+00   0.0000000e+00   5.5895539e-05   0.0000000e+00   6.4269914e-05  -2.3573180e-05   6.0646520e-05   1.3227233e-04   0.0000000e+00   8.8489651e-05   8.5023349e-05   2.9380648e-05   2.5572882e-06   9.0280907e-05   2.3931817e-05   3.4420550e-05  -2.7216812e-06  -1.2313434e-05   0.0000000e+00  -6.3537240e-05   4.4954105e-05   0.0000000e+00  -6.6478767e-05   2.9812104e-05  -1.0747623e-04  -2.0838752e-04   2.7611571e-04   6.8691689e-05   1.2593579e-05  -1.6875258e-05  -7.2122550e-06  -1.2157147e-04   1.2600376e-04   1.3786310e-04   3.0817566e-05  -7.5212473e-04   3.0350649e-04  -7.8340885e-04   0.0000000e+00   0.0000000e+00   5.0881925e-04   0.0000000e+00   1.6795648e-04  -5.3248617e-04   1.5462478e-04  -7.9761944e-05   0.0000000e+00   1.1654643e-04   2.2790269e-04  -2.6241400e-04  -1.8885281e-04  -4.5683480e-04   2.7697889e-04   3.1594072e-04   6.2544936e-04   8.5411592e-04   0.0000000e+00   7.4231474e-04   6.3772540e-04   0.0000000e+00   1.9159505e-04   1.0162131e-04   3.7215509e-04  -8.8595428e-04  -3.9880194e-04  -1.4311406e-03   5.4059868e-04   6.8985296e-04  -1.7523796e-05  -1.2324621e-04  -3.6317332e-04  -3.2713831e-04  -7.8581404e-04  -7.5807446e-05   7.5477151e-04  -3.4048287e-04   0.0000000e+00   0.0000000e+00   1.6835712e-04   0.0000000e+00   7.7079113e-04   3.7260680e-04   1.4904243e-04   1.7434976e-04   0.0000000e+00   1.7788097e-04   1.0096557e-03   1.4265419e-04  -1.4795800e-05  -5.8543641e-05   1.9470046e-04   1.4023788e-04   1.6386540e-04   3.1468828e-04   0.0000000e+00   1.1266014e-04   8.7400315e-04   0.0000000e+00   3.9303733e-04   1.9223857e-04   1.9827410e-04   1.9781180e-04   6.4638007e-05   6.3476595e-04   7.3629487e-05   1.1855591e-05  -1.2924615e-05  -3.6801510e-04  -3.3077854e-05   7.5286532e-04   7.9257374e-04   1.3124279e-04  -1.2579820e-04   4.0134543e-04   0.0000000e+00   0.0000000e+00  -1.2841793e-04   0.0000000e+00   3.5557115e-04   2.5157766e-04  -4.9219396e-05  -6.6851275e-05   0.0000000e+00   1.7238565e-04   2.4492868e-04   1.4005750e-04   2.9193839e-04   1.2223668e-04  -1.2584028e-04  -1.2497850e-04  -1.6580946e-04  -2.4944147e-04   0.0000000e+00  -2.1134927e-04  -1.0928003e-04   0.0000000e+00  -3.3806704e-04  -1.3687135e-04  -2.9880562e-04   1.2590023e-04   4.1051474e-04   4.4414375e-04  -2.0676947e-04  -1.7197727e-04   5.5047927e-05   6.1826360e-05   2.9875177e-04   3.1777077e-04   1.5799167e-04  -3.9186892e-05   1.8288348e-04   2.9086409e-05   0.0000000e+00   0.0000000e+00   9.2597967e-05   0.0000000e+00  -1.9371120e-05  -3.0850136e-04  -8.9311708e-05   1.1965965e-04   0.0000000e+00   6.1612108e-05  -9.2690320e-06  -8.7423789e-05  -2.9519740e-04  -1.6330564e-04   6.2162044e-05   5.6606118e-05   9.2066550e-06   2.4474636e-05   0.0000000e+00  -2.3279968e-06   1.3376533e-04   0.0000000e+00  -2.9816755e-05   5.3149220e-05  -1.0005289e-04  -2.9664203e-04  -3.0960011e-05  -4.6421389e-04  -2.3914807e-05  -3.2927782e-05  -8.2802254e-05  -2.0416416e-04  -1.1794481e-04  -1.4565098e-04  -5.6315870e-05  -5.0763061e-04  -4.4732335e-04  -4.1805806e-04   0.0000000e+00   0.0000000e+00   9.4251142e-05   0.0000000e+00  -2.3503488e-04  -1.4075104e-04  -2.5940272e-04  -6.8267642e-05   0.0000000e+00  -1.4911590e-04  -2.0057177e-04  -2.3175629e-05  -7.1806858e-05  -2.3288543e-04  -8.2531956e-05  -7.6846974e-05  -8.3250567e-05  -1.3701958e-04   0.0000000e+00  -2.5207872e-04  -4.7447630e-04   0.0000000e+00  -3.0361168e-04  -1.6570990e-04  -3.4968731e-04  -4.1454580e-04  -2.7040703e-04  -7.4841583e-04  -1.1138057e-04  -2.9367710e-05  -8.2105675e-05  -2.8474001e-04  -1.6664440e-04  -2.7955656e-04  -3.5302192e-04  -1.8045120e-04  -3.2458737e-04  -5.7983044e-04   0.0000000e+00   0.0000000e+00  -1.7037130e-04   0.0000000e+00  -6.1269775e-04  -5.5049246e-04  -1.9982609e-04  -2.9621900e-04   0.0000000e+00  -3.0832781e-04  -1.7307608e-04  -5.6495601e-04  -5.8837660e-04  -4.1909915e-04  -2.0476081e-04  -3.1860709e-04  -2.0322446e-04  -1.2972894e-04   0.0000000e+00  -1.5735870e-04  -3.3143778e-04   0.0000000e+00  -6.0113317e-05  -2.4850860e-04  -7.4351126e-05  -2.7599953e-04  -1.1775350e-03  -6.9796866e-04  -2.2294682e-04  -1.8757721e-04  -2.9105120e-04  -3.6349324e-04  -8.6011173e-04  -1.0275129e-03  -1.6600904e-04  -2.7341814e-04  -6.4885078e-04  -8.4886313e-05   0.0000000e+00   0.0000000e+00  -9.2875037e-05   0.0000000e+00   1.7150069e-04  -3.9569898e-05  -6.8824238e-05  -3.3388435e-05   0.0000000e+00   1.4211570e-06   2.1837725e-04   2.2044222e-04   7.9967162e-05  -2.4577548e-05  -1.7400735e-04  -2.1581791e-04  -2.8511914e-04  -3.4101116e-04   0.0000000e+00  -3.5508169e-04  -8.6608336e-04   0.0000000e+00  -9.7826858e-04  -4.4693846e-04  -7.6397449e-04  -1.0183660e-03   6.9624510e-04  -5.3701107e-04  -3.9497535e-04  -2.2065792e-04  -1.5744487e-04  -2.3842203e-04   4.2469673e-04   1.4819367e-04  -2.3862578e-04  -5.9278769e-04  -3.5488195e-04   4.1312270e-04   0.0000000e+00   0.0000000e+00  -2.0935035e-04   0.0000000e+00   7.1200206e-04   1.9654735e-04  -7.7285586e-06  -1.9847524e-04   0.0000000e+00  -1.4208079e-04   1.8936639e-04   3.5695632e-04   2.6253999e-04   3.9667591e-05  -9.2750385e-05  -2.4341441e-04  -3.1957274e-04  -2.4740834e-04   0.0000000e+00  -1.9582471e-04  -1.9656607e-04   0.0000000e+00  -3.7879571e-04  -1.3274989e-04  -7.7911922e-05  -2.6209581e-04   6.6731935e-04   1.4920763e-04  -3.0520968e-04  -1.2010980e-04   1.3708126e-04   1.6253545e-06   2.8804041e-04   4.4470645e-04   1.8159566e-04   9.8677461e-04   2.5938653e-04   1.1432881e-03   0.0000000e+00   0.0000000e+00  -9.0057009e-05   0.0000000e+00  -1.1455454e-05  -1.2590591e-04   2.2095430e-04  -1.0731271e-04   0.0000000e+00   4.7767876e-05   3.1877723e-04   2.8171469e-05  -2.0534440e-04   8.8979565e-05   1.0559467e-04   9.4109552e-05  -3.9655677e-06  -2.4442823e-04   0.0000000e+00   7.0190622e-05   9.1178258e-04   0.0000000e+00  -1.3416352e-04   1.9768695e-04  -1.7316529e-04   7.2285506e-05   5.1056770e-04   9.5485154e-04  -9.7418044e-05   5.2193637e-05  -4.1337611e-05  -2.0178914e-04   7.4098685e-05   1.2732093e-04   1.8326668e-04  -7.4027785e-04  -6.2331914e-04  -1.6631870e-04   0.0000000e+00   0.0000000e+00  -1.5956272e-04   0.0000000e+00  -1.5458188e-04  -1.2802006e-04  -3.0376191e-04  -2.7160949e-04   0.0000000e+00  -2.3725545e-04  -6.1015541e-05   3.5102643e-06  -8.0343768e-05  -2.0677158e-04  -2.6826937e-04  -2.2192127e-04  -3.6838032e-04  -4.1942643e-04   0.0000000e+00  -2.2688095e-04  -3.6499052e-04   0.0000000e+00  -3.0860097e-04  -2.3319663e-04  -1.7995193e-04  -4.6810953e-04   8.3974484e-05  -1.0854861e-03  -2.6332882e-04  -1.9698290e-04  -1.1765043e-04  -1.6461322e-04   4.8650857e-05  -3.2858302e-04  -6.8850926e-04
   1.0795268e-05   1.3755206e-05   1.9909791e-04   0.0000000e+00   0.0000000e+00   5.3146914e-05   0.0000000e+00   6.7355651e-05  -1.6235743e-05   5.2141963e-05   1.1937090e-04   0.0000000e+00   7.8518571e-05   8.4120903e-05   3.8594379e-05   8.0367633e-06   8.7681136e-05   1.6077170e-05   2.6035908e-05  -1.1144868e-05  -2.2039849e-05   0.0000000e+00  -6.9039200e-05   2.6353476e-05   0.0000000e+00  -8.8750970e-05   1.9101373e-05  -1.2504172e-04  -2.0887935e-04   2.7865697e-04   5.3651628e-05   3.0981661e-06  -2.1837927e-05  -6.8461193e-06  -1.1891230e-04   1.3221437e-04   1.3385233e-04   1.9121158e-05  -8.3882641e-04   3.4526848e-04  -7.9947040e-04   0.0000000e+00   0.0000000e+00   5.3163984e-04   0.0000000e+00   1.9923543e-04  -5.2871580e-04   1.7844699e-04  -6.8317636e-05   0.0000000e+00   1.5873773e-04   2.4088082e-04  -2.6431547e-04  -2.0918824e-04  -4.3199381e-04   3.0627815e-04   3.4494549e-04   6.6727959e-04   9.0121982e-04   0.0000000e+00   7.8744814e-04   6.7148978e-04   0.0000000e+00   2.0783619e-04   9.2843715e-05   4.2674215e-04  -8.1007561e-04  -3.8456678e-04  -1.4098775e-03   5.7966005e-04   7.3211447e-04  -4.4567208e-06  -8.8698791e-05  -3.7138836e-04  -2.9548672e-04  -7.8024200e-04  -1.5626341e-05   7.9862056e-04  -3.3529297e-04   0.0000000e+00   0.0000000e+00   1.8037238e-04   0.0000000e+00   7.6049496e-04   3.7642155e-04   1.6475323e-04   1.7559005e-04   0.0000000e+00   1.7101101e-04   9.7171630e-04   1.5074063e-04   3.7345065e-07  -6.7958996e-05   2.3189179e-04   1.4621838e-04   1.6991556e-04   3.2060480e-04   0.0000000e+00   7.0929033e-05   9.6372758e-04   0.0000000e+00   3.3577636e-04   1.6670985e-04   1.4326579e-04   6.1188233e-05   1.1292374e-05   2.3935852e-04   3.0868015e-05  -6.3910760e-05  -2.9822268e-05  -4.3450866e-04  -7.8224182e-05   5.9871735e-04   6.4555865e-04   1.2460446e-04  -1.1268339e-04   3.7870187e-04   0.0000000e+00   0.0000000e+00  -1.3323629e-04   0.0000000e+00   3.5596581e-04   2.5967186e-04  -4.6390529e-05  -7.8197739e-05   0.0000000e+00   1.7814956e-04   2.5329178e-04   1.3078829e-04   2.9301150e-04   1.2947631e-04  -1.2424551e-04  -1.2294691e-04  -1.6103092e-04  -2.3515275e-04   0.0000000e+00  -1.9086072e-04  -1.0090583e-04   0.0000000e+00  -3.0796315e-04  -1.2807611e-04  -2.6740445e-04   1.6419087e-04   4.0340365e-04   4.7694815e-04  -1.9689785e-04  -1.6435828e-04   6.1224170e-05   8.4381233e-05   2.9812651e-04   3.1737166e-04   1.8355610e-04  -1.9012747e-05   1.9095842e-04   8.9521905e-06   0.0000000e+00   0.0000000e+00   9.3798088e-05   0.0000000e+00  -3.7727882e-05  -2.8581080e-04  -7.8167383e-05   1.1870952e-04   0.0000000e+00   5.4252876e-05  -3.0657623e-05  -1.1183557e-04  -2.8191473e-04  -1.5468351e-04   6.1882760e-05   5.7431584e-05   1.8877490e-05   3.2927653e-05   0.0000000e+00   1.4470030e-05   1.5581139e-04   0.0000000e+00   1.0175662e-05   6.7996867e-05  -6.8589969e-05  -2.2682929e-04  -4.6179456e-05  -4.2147231e-04  -6.5003095e-06  -2.7003856e-05  -7.2718195e-05  -1.6785863e-04  -1.3267179e-04  -1.4831776e-04  -3.3911183e-05  -5.3327792e-04  -4.5200352e-04  -4.4508452e-04   0.0000000e+00   0.0000000e+00   8.6898780e-05   0.0000000e+00  -2.5953222e-04  -1.5080390e-04  -2.5305430e-04  -6.2836432e-05   0.0000000e+00  -1.6825644e-04  -2.2055144e-04  -4.1560236e-05  -8.5352923e-05  -2.2793384e-04  -8.1287249e-05  -7.4599749e-05  -7.8977150e-05  -1.3774012e-04   0.0000000e+00  -2.4995092e-04  -4.8182365e-04   0.0000000e+00  -2.8738433e-04  -1.6225991e-04  -3.2896179e-04  -3.9613200e-04  -2.9070255e-04  -7.5237664e-04  -1.0919496e-04  -2.9989744e-05  -8.4424061e-05  -2.7669588e-04  -1.7620374e-04  -2.9198174e-04  -3.4998514e-04  -1.3334069e-04  -3.3498941e-04  -6.2747312e-04   0.0000000e+00   0.0000000e+00  -1.7099779e-04   0.0000000e+00  -6.5291569e-04  -5.8309277e-04  -2.0787821e-04  -2.9888378e-04   0.0000000e+00  -3.1451859e-04  -2.0091289e-04  -5.8357339e-04  -6.1044406e-04  -4.5006022e-04  -2.0004225e-04  -3.1867287e-04  -1.9339832e-04  -1.3153135e-04   0.0000000e+00  -1.6079701e-04  -3.3550230e-04   0.0000000e+00  -5.3035934e-05  -2.4450740e-04  -7.5015821e-05  -3.5976594e-04  -1.2150879e-03  -7.8368852e-04  -2.2779001e-04  -1.8505238e-04  -2.9651149e-04  -3.6485943e-04  -8.9117646e-04  -1.0814091e-03  -1.6623920e-04  -2.7844908e-04  -6.3303036e-04  -9.8239742e-05   0.0000000e+00   0.0000000e+00  -9.8373146e-05   0.0000000e+00   1.4748090e-04  -5.5133250e-05  -6.9329417e-05  -2.0181572e-05   0.0000000e+00  -3.0846145e-05   1.8708170e-04   2.1275882e-04   7.6460157e-05  -2.4770068e-05  -1.7848902e-04  -2.2287157e-04  -2.9022054e-04  -3.4245287e-04   0.0000000e+00  -3.4943263e-04  -8.7083471e-04   0.0000000e+00  -9.9695314e-04  -4.6047983e-04  -7.7721716e-04  -1.0387451e-03   6.8300822e-04  -5.5712225e-04  -3.8597058e-04  -2.1203814e-04  -1.6209896e-04  -2.3026142e-04   4.1359049e-04   1.2767720e-04  -2.4550905e-04  -6.0666108e-04  -3.2642707e-04   4.1282022e-04   0.0000000e+00   0.0000000e+00  -2.1238560e-04   0.0000000e+00   7.0300248e-04   2.2562388e-04   2.6498084e-05  -1.9425987e-04   0.0000000e+00  -1.3868196e-04   1.6788276e-04   3.5633593e-04   2.7410567e-04   5.2048637e-05  -7.7196672e-05  -2.2742550e-04  -2.8889072e-04  -2.1304629e-04   0.0000000e+00  -1.6509825e-04  -1.6583178e-04   0.0000000e+00  -2.8349185e-04  -1.0764855e-04   2.1827320e-05  -1.3048283e-04   5.8010718e-04   2.4030147e-04  -2.7011412e-04  -1.0006955e-04   1.4606001e-04   3.4457902e-05   2.3200033e-04   4.3771844e-04   2.1370896e-04   9.9882653e-04   3.1425024e-04   1.2023898e-03   0.0000000e+00   0.0000000e+00  -7.9264045e-05   0.0000000e+00   4.2687133e-06  -1.1674648e-04   2.8699419e-04  -7.5088086e-05   0.0000000e+00   7.9144275e-05   3.4486315e-04   2.3893860e-05  -1.8141068e-04   1.2393135e-04   1.3345078e-04   1.2502416e-04   2.9444235e-05  -2.1658875e-04   0.0000000e+00   9.1684363e-05   9.4422617e-04   0.0000000e+00  -9.5444073e-05   2.3126485e-04  -1.2917867e-04   4.8496195e-05   5.2843017e-04   9.9644331e-04  -6.8001426e-05   7.1458102e-05  -2.8606732e-05  -1.8771074e-04   7.4251442e-05   1.5374576e-04   2.1754407e-04  -7.5553366e-04  -6.2926956e-04  -1.8020578e-04   0.0000000e+00   0.0000000e+00  -1.5870384e-04   0.0000000e+00  -1.6139472e-04  -1.2650515e-04  -3.0702288e-04  -2.7485554e-04   0.0000000e+00  -2.5438133e-04  -7.3576991e-05   3.4097833e-06  -9.8485335e-05  -2.1708455e-04  -2.6821861e-04  -2.2002440e-04  -3.6988312e-04  -4.1548143e-04   0.0000000e+00  -2.3133627e-04  -3.6981330e-04   0.0000000e+00  -3.0766272e-04  -2.3594775e-04  -1.7889390e-04  -4.9771712e-04   4.9795456e-05  -1.1345880e-03  -2.7130664e-04  -2.0545160e-04  -1.2533174e-04  -1.8545465e-04   2.8559217e-05  -3.5332645e-04  -7.1286807e-04
