  -5.0369489e-05  -3.1725478e-05  -2.9146622e-05  -5.2431143e-05  -2.9115689e-05  -1.7672922e-05   1.1338096e-05  -2.6683795e-05  -4.8388526e-05  -4.1799475e-05  -3.4816139e-05  -5.8358988e-05   2.1189188e-06   2.5810350e-05  -2.9470289e-05  -4.3506875e-05  -3.9243555e-05  -3.0499040e-05  -3.4742761e-05  -4.3342330e-05  -4.6718356e-05  -6.1430501e-05  -3.4491506e-05  -5.6015853e-05  -1.0911477e-06  -6.6627404e-05  -1.1198477e-05  -2.2693161e-06  -4.3003970e-05  -1.9623613e-05   1.2689324e-05  -7.2941181e-05  -4.8492693e-05  -3.1615903e-05  -3.4720559e-05  -3.0847791e-05   1.4792852e-05   5.1549526e-05  -4.8672985e-05  -6.3960578e-05  -5.1499210e-05  -5.4310338e-05  -2.2960544e-05  -5.7818633e-05  -3.9707394e-05  -2.8904251e-05  -3.4495649e-05  -9.2041003e-05  -8.7314966e-05  -1.3468272e-04   1.1506687e-05   1.4989490e-05  -1.3368009e-05  -2.2035481e-05  -3.8519746e-05  -6.5378509e-05  -6.5766722e-05  -1.1601409e-04  -1.1186989e-04  -4.3562180e-05  -5.4620917e-05  -3.0154932e-05  -2.5318149e-05  -1.0818188e-04  -5.6844229e-05  -2.9064942e-05  -1.0453636e-05   2.1300646e-05   4.5445954e-05  -9.3547541e-05  -7.9476701e-05  -3.5704189e-05  -1.7377254e-05  -3.6065091e-06   4.6730269e-05   6.6488498e-05  -4.6989004e-04  -3.9502118e-04  -1.9619991e-04  -2.2016588e-04  -1.1777103e-04  -2.3912421e-04   6.8055768e-04   2.5485854e-04  -5.3381833e-05  -1.4543360e-04  -3.0331443e-04  -3.5172701e-04   6.5059376e-05   2.9367769e-04   9.2153321e-05  -1.1634887e-04  -5.8208369e-05  -3.6141954e-04  -3.8671896e-04  -6.5075586e-04  -6.5688487e-04  -5.3214653e-04  -2.4312977e-04  -2.6371445e-04  -4.3507146e-05  -5.6846408e-04  -2.3197679e-04  -2.6791637e-04  -1.0166069e-04   2.2175228e-04   7.6518621e-05  -5.8194854e-04  -4.8120122e-04  -2.6104200e-04  -1.7979006e-04   3.7755963e-06   3.6695812e-05  -1.9965228e-08  -9.3964864e-05  -1.0276482e-04  -5.3587288e-05  -8.8976214e-05  -6.3383431e-05  -2.8376592e-05   1.2836006e-05  -2.9020464e-05  -5.1985194e-05  -5.3831184e-05  -5.0290387e-05  -7.0709954e-05  -1.7883284e-05  -7.4306332e-06  -3.6274176e-05  -3.9217886e-05  -3.8152391e-05  -4.6051751e-05  -4.7547758e-05  -5.3389810e-05  -7.1566874e-05  -1.2476688e-04  -5.5231615e-05  -1.0906755e-04  -3.0701343e-05  -8.7090727e-05  -4.4709989e-05  -3.9979725e-05  -4.3794613e-05   3.2152150e-06  -2.5815903e-06  -9.6987222e-05  -7.0325379e-05  -2.5461230e-05  -3.5694824e-05  -1.8292999e-05   5.0938872e-06   4.5229146e-06  -3.9005772e-05  -9.3145188e-06  -4.7775688e-05  -4.3578387e-05  -3.5081810e-05  -3.9711567e-05  -1.1292640e-04  -1.1466277e-04  -8.0788337e-05  -8.3715059e-05  -3.5602140e-05  -8.4596626e-05  -4.0442464e-05  -5.3374170e-05  -1.0704400e-04  -9.4478472e-05  -6.1567218e-05  -1.3735135e-05  -1.9452813e-05  -7.6235974e-07  -3.1236212e-05  -5.0244803e-05  -3.2650210e-05  -4.8074771e-05  -5.4944057e-06  -7.2257600e-05  -1.5095871e-05  -2.1017653e-05  -6.7830988e-05  -1.5985949e-04  -6.2823243e-05  -6.6163723e-05  -4.8493594e-05  -2.4147914e-05  -5.7406168e-05  -1.0447759e-04  -5.1116190e-05   1.1137146e-05  -1.2725842e-04  -1.3160698e-04  -7.7016143e-05  -1.2276198e-04  -8.7083373e-05  -6.2055165e-05  -7.1481955e-05  -2.0128787e-05  -4.3157797e-05  -9.5425579e-05  -1.0013161e-04  -1.1588975e-04  -6.3566757e-05  -3.1091315e-05   5.3437986e-07  -1.9329957e-05  -3.5533168e-05  -8.7380901e-05  -8.6008499e-05  -1.0479242e-04  -1.3837229e-04  -1.4293154e-04  -8.1265038e-05  -1.2705262e-04  -6.1483878e-05  -1.3491186e-04  -6.9968230e-05  -6.9712650e-05  -3.6187718e-05   2.6749116e-05  -1.3181941e-05  -1.2682366e-04  -1.0899498e-04  -3.6652466e-05  -3.6290889e-05   5.2925891e-06  -4.5920908e-07  -2.6101624e-05  -1.7273133e-04  -1.8249359e-04  -9.4520793e-05  -1.3645052e-04  -1.0047921e-04  -9.7602155e-05  -4.5631528e-05  -1.3398621e-05  -6.0847163e-05  -1.3369374e-04  -1.3158202e-04  -1.7502249e-04  -1.6468638e-05  -1.7749719e-06  -8.5064737e-06  -4.7106921e-05  -5.4963240e-05  -1.5224419e-04  -1.4719752e-04  -1.9074122e-04  -2.3797313e-04  -2.1015513e-04  -1.1852815e-04  -1.3848479e-04  -6.1176355e-05  -2.2543427e-04  -1.2206541e-04  -1.1950934e-04  -4.9855799e-05   1.8828780e-05   1.6612036e-05  -2.0735321e-04  -1.6243796e-04  -4.8598199e-05  -4.6077018e-05   8.7230316e-06   3.6725748e-05   5.8297796e-05  -2.1562253e-04  -2.2632667e-04  -1.2230752e-04  -2.1311349e-04  -1.5048373e-04  -1.0811006e-04  -1.5167325e-04  -6.7400238e-05  -8.1150788e-05  -1.6103959e-04  -1.5809315e-04  -2.0051621e-04  -9.8979179e-05  -6.5293960e-05  -4.3909381e-05  -6.8558850e-05  -8.3187521e-05  -1.7732218e-04  -1.7114910e-04  -2.3501577e-04  -2.7945288e-04  -2.6275850e-04  -1.4604910e-04  -1.8775762e-04  -7.8225376e-05  -2.5714540e-04  -1.3274988e-04  -1.4449616e-04  -8.0212403e-05  -3.3673437e-05   7.7725388e-06  -2.8014538e-04  -1.9190950e-04  -5.4261765e-05  -7.3262671e-05  -2.9124750e-05   4.0842365e-05   6.4061184e-05  -7.1527369e-05  -8.5127481e-05  -6.7738930e-05  -1.1001320e-04  -9.9161354e-05  -4.8397746e-05  -5.6522569e-05  -3.1057200e-05  -2.4506186e-05  -1.5114126e-04  -1.1502653e-04  -1.1932226e-04  -1.1417421e-04  -2.0491932e-05  -1.0866667e-06   2.3570583e-06  -4.0999212e-05  -5.7096752e-05  -4.1351076e-05  -2.5468199e-05  -4.0925030e-05  -1.3375649e-04  -6.0888557e-05  -1.0396003e-04  -9.2565300e-05  -1.5505648e-04  -1.0275806e-04  -1.4220504e-04  -4.4924408e-05  -8.0510899e-05  -1.2585481e-04  -1.1052387e-04  -1.2494464e-04  -1.8578911e-05  -5.1141231e-05  -2.2463399e-05  -1.0774934e-05  -3.2922714e-05  -9.3241123e-05  -1.0538331e-04  -7.4858617e-05  -1.1909817e-04  -6.5598946e-05  -4.9379345e-05  -1.9412454e-04  -6.1740636e-05  -7.4385056e-05  -9.3649776e-05  -8.3146161e-05  -1.1007036e-04  -9.1611533e-05  -1.2391152e-04  -4.2499760e-05  -3.5729342e-05  -3.0705416e-05  -6.7338766e-05  -2.7803933e-05  -4.8210487e-05  -7.1773501e-05  -1.2497145e-04  -6.2429934e-05  -1.1575481e-04  -6.7024742e-05  -1.4319578e-04  -6.8957436e-05  -5.7340775e-05  -6.0255331e-05  -4.7433545e-05  -1.7952736e-05  -9.6083417e-05  -9.5088123e-05  -2.0755128e-05  -2.8260173e-05   5.4387419e-07   7.8751953e-06  -3.0928478e-05  -1.7808405e-07  -5.8736421e-05  -3.8097731e-06  -4.2246807e-05   1.6480419e-05  -1.5289791e-05  -6.5220257e-05   2.2518677e-06   3.8347764e-05  -4.0063136e-05  -2.9869713e-05  -1.6127782e-05  -5.2923919e-05  -3.7744196e-05   2.3163931e-05   4.3533017e-05   1.5915573e-05  -3.2150899e-05   4.0962860e-05   5.7272067e-05   1.7431063e-05  -1.1980766e-04  -1.0033248e-05  -1.5952275e-04  -9.0933624e-05  -3.6817511e-05  -6.4990469e-05  -1.2239010e-04  -2.1853553e-05   4.8602068e-05  -8.2553432e-06  -5.2302354e-06  -6.3838227e-05  -9.5600328e-06  -4.3249609e-06   2.1697964e-05  -3.8570928e-05  -3.0284068e-05  -1.1466189e-05   5.1386866e-04   6.3459191e-05   7.8805412e-05   3.0032569e-04  -8.7303042e-05  -1.2349892e-03  -1.7060668e-04  -4.2363614e-05  -1.6408818e-04  -7.6739743e-05  -2.8493971e-05  -2.0413349e-04  -5.3496153e-04  -1.9619465e-04  -9.1265008e-05  -5.1221913e-05   7.0820773e-05   5.6270969e-05   7.4799425e-05   3.9306297e-05   4.5422147e-04   4.8028720e-05   5.6693380e-05  -5.1181512e-05   1.5911083e-04   1.3378090e-04   2.8463952e-05  -7.9799211e-06  -4.8848833e-05  -1.5966899e-04   2.0683379e-04   1.9485930e-04   7.6690347e-05  -2.9299545e-05  -8.6075746e-05   2.3466736e-04  -1.5602148e-04
  -7.3439062e-05  -5.4451448e-05  -4.2791690e-05  -7.4500446e-05  -4.4302210e-05  -2.8968623e-05   5.2867591e-06  -3.0515124e-05  -5.8603036e-05  -6.0080003e-05  -5.2589217e-05  -8.0881648e-05  -4.2426331e-06   2.4854354e-05  -3.2002941e-05  -5.1103005e-05  -4.8294521e-05  -4.7302705e-05  -5.1976748e-05  -6.5827699e-05  -7.4245943e-05  -8.8766029e-05  -5.0182837e-05  -7.7702954e-05  -8.9337221e-06  -9.4236993e-05  -2.3904804e-05  -1.4195105e-05  -5.1843898e-05  -2.0516745e-05   1.4545884e-05  -1.0149175e-04  -6.9572810e-05  -3.8504105e-05  -4.2340912e-05  -3.2954553e-05   1.9682662e-05   5.9529909e-05  -6.8461598e-05  -8.1000203e-05  -6.3243938e-05  -7.0197689e-05  -3.2680685e-05  -7.2169751e-05  -3.8105802e-05  -2.8610545e-05  -3.8437810e-05  -1.0912255e-04  -1.0423160e-04  -1.5968676e-04   1.0039835e-05   2.2094855e-05  -1.0813755e-05  -2.4478618e-05  -4.5465163e-05  -7.9655409e-05  -8.0646351e-05  -1.4210770e-04  -1.3819834e-04  -5.6855380e-05  -6.8890093e-05  -3.6633641e-05  -3.1185189e-05  -1.3572093e-04  -6.9884650e-05  -4.0943813e-05  -1.1490219e-05   2.8956981e-05   5.6539687e-05  -1.1464296e-04  -9.8096438e-05  -4.0779983e-05  -2.1099382e-05   2.8228040e-07   6.3032509e-05   7.3960780e-05  -5.5858598e-04  -5.3529233e-04  -2.3870674e-04  -3.0172884e-04  -2.2087821e-04  -2.8040569e-04   8.5079996e-04   2.3040649e-04  -7.0679265e-05  -1.5213982e-04  -3.3135588e-04  -4.3149079e-04   7.3128947e-05   4.0997718e-04   1.2485619e-04  -1.0247682e-04  -2.5352706e-05  -4.2741035e-04  -4.6199410e-04  -7.5209294e-04  -7.7544417e-04  -6.6392176e-04  -3.0131062e-04  -3.9055308e-04  -1.1842263e-04  -6.9398839e-04  -2.9537332e-04  -3.6395593e-04  -1.4777491e-04   3.2426703e-04   8.3466476e-05  -7.0047529e-04  -5.5667232e-04  -3.0937051e-04  -2.1485236e-04   4.0092171e-05  -3.8003636e-06  -1.1672906e-04  -1.0970609e-04  -1.2274625e-04  -6.3448197e-05  -1.0409026e-04  -7.5430563e-05  -3.5136647e-05   1.0124006e-05  -3.3327689e-05  -5.8167105e-05  -6.4530297e-05  -6.0285800e-05  -8.2515308e-05  -2.3952713e-05  -1.1576588e-05  -4.0058785e-05  -4.3356730e-05  -4.2943658e-05  -5.5546454e-05  -5.7578835e-05  -6.5760960e-05  -8.6623389e-05  -1.4710063e-04  -6.5526019e-05  -1.2829279e-04  -3.8680169e-05  -1.0271563e-04  -5.4568831e-05  -5.0348499e-05  -4.8759788e-05   4.7449418e-06  -5.6429778e-06  -1.1241738e-04  -8.2799546e-05  -2.8258437e-05  -3.9988088e-05  -1.8446078e-05   6.0471812e-06   2.5562334e-06  -4.8596433e-05  -1.8490328e-05  -5.5768911e-05  -5.6413255e-05  -4.1649725e-05  -4.7114779e-05  -1.2147333e-04  -1.2387228e-04  -9.0444801e-05  -9.3128367e-05  -4.2997578e-05  -9.7164279e-05  -4.5220534e-05  -6.0337494e-05  -1.1761164e-04  -1.0634074e-04  -6.8827271e-05  -1.8560195e-05  -2.6230363e-05  -1.0801924e-05  -3.9487442e-05  -6.1505012e-05  -3.8198631e-05  -5.8044278e-05  -6.8306528e-06  -8.1465594e-05  -1.7781461e-05  -2.4219179e-05  -7.4128917e-05  -1.7166725e-04  -6.4564183e-05  -7.5140233e-05  -5.5407231e-05  -2.5012997e-05  -6.3240456e-05  -1.1211619e-04  -5.1569338e-05   1.3897571e-05  -1.4107727e-04  -1.4655554e-04  -8.6254937e-05  -1.3665015e-04  -9.5853491e-05  -6.9641288e-05  -7.9880781e-05  -2.0466967e-05  -4.6507692e-05  -1.0618867e-04  -1.1088152e-04  -1.2779939e-04  -7.1293875e-05  -3.6503860e-05   3.0379154e-06  -1.9519919e-05  -3.7510744e-05  -9.6933071e-05  -9.5032576e-05  -1.1702424e-04  -1.5414968e-04  -1.5884722e-04  -9.0188178e-05  -1.4076692e-04  -6.8892074e-05  -1.4952115e-04  -7.9560473e-05  -7.9074537e-05  -3.8630369e-05   3.1213533e-05  -1.5614414e-05  -1.4047506e-04  -1.2230970e-04  -4.0187073e-05  -3.9347519e-05   8.3779604e-06  -1.2842080e-06  -3.0582100e-05  -1.8886181e-04  -2.0430351e-04  -1.0451084e-04  -1.4900119e-04  -1.1163740e-04  -1.0759974e-04  -5.2029759e-05  -1.2092885e-05  -6.5178319e-05  -1.4512070e-04  -1.4318722e-04  -1.8945216e-04  -1.2946901e-05  -2.3918552e-06  -6.1036090e-06  -4.7003168e-05  -5.5130294e-05  -1.6863160e-04  -1.5934230e-04  -2.0893091e-04  -2.6046299e-04  -2.3046429e-04  -1.2964319e-04  -1.5155784e-04  -6.8871131e-05  -2.4650029e-04  -1.3616326e-04  -1.3422475e-04  -5.1460437e-05   2.3824291e-05   1.7517057e-05  -2.2515620e-04  -1.7660124e-04  -4.9410098e-05  -4.7371464e-05   1.5047407e-05   3.9001888e-05   6.2074453e-05  -2.3607551e-04  -2.5094188e-04  -1.3552152e-04  -2.3489080e-04  -1.6571373e-04  -1.1956230e-04  -1.6392502e-04  -6.8576514e-05  -8.6221586e-05  -1.7385928e-04  -1.7390875e-04  -2.1796202e-04  -1.0457012e-04  -7.2303731e-05  -4.3133984e-05  -7.0635339e-05  -8.6238757e-05  -1.9703642e-04  -1.8842002e-04  -2.5890667e-04  -3.0863058e-04  -2.8781147e-04  -1.5801622e-04  -2.0372622e-04  -8.7419708e-05  -2.8017252e-04  -1.4761402e-04  -1.6089804e-04  -8.6715788e-05  -3.1760238e-05   1.2455701e-05  -3.0538530e-04  -2.0857339e-04  -5.5883641e-05  -7.7656997e-05  -2.5897359e-05   4.8052440e-05   7.0558459e-05  -7.6703157e-05  -9.6479953e-05  -7.8661336e-05  -1.2241880e-04  -1.1728155e-04  -5.4549124e-05  -7.9860086e-05  -3.5935424e-05  -2.7124912e-05  -1.7683778e-04  -1.3169192e-04  -1.4180002e-04  -1.3189709e-04  -3.1601024e-05  -1.9414244e-06   6.8714776e-06  -4.4917788e-05  -5.9591096e-05  -4.1242985e-05  -2.6772051e-05  -3.6917025e-05  -1.4908401e-04  -6.3306605e-05  -1.1064562e-04  -1.0277618e-04  -1.6889075e-04  -1.1660629e-04  -1.6388448e-04  -5.0198053e-05  -8.5233616e-05  -1.3846382e-04  -1.2159906e-04  -1.3646063e-04  -2.2346936e-05  -5.4763025e-05  -1.9874074e-05  -1.3917922e-05  -3.7401961e-05  -1.2256106e-04  -1.3870588e-04  -9.2524621e-05  -1.4614608e-04  -8.6467598e-05  -6.5561332e-05  -2.0724198e-04  -7.5981062e-05  -8.7045265e-05  -1.1285917e-04  -1.0267921e-04  -1.4009878e-04  -1.0314880e-04  -1.2646265e-04  -5.0223471e-05  -3.9380525e-05  -3.4204526e-05  -8.5362387e-05  -4.5475181e-05  -7.1921989e-05  -9.6924860e-05  -1.5812387e-04  -8.2060259e-05  -1.4971976e-04  -8.7397897e-05  -1.7925464e-04  -9.1176156e-05  -8.0064686e-05  -7.5665555e-05  -4.6453081e-05  -2.2591008e-05  -1.2342904e-04  -1.2326879e-04  -2.8815154e-05  -3.9370896e-05   2.4038187e-07  -2.3041247e-07  -4.5133270e-05   5.3516401e-06  -6.1941895e-05  -8.4885270e-07  -3.8250931e-05   2.4090269e-05  -1.2401114e-05  -7.6003650e-05  -8.1841257e-06   4.3922177e-05  -3.8588898e-05  -2.5136935e-05  -1.2461118e-05  -6.2993247e-05  -4.6527352e-05   1.8842482e-05   4.4879517e-05   1.8394489e-05  -2.6315785e-05   5.2778335e-05   7.0989176e-05   3.0981816e-05  -1.1993462e-04  -4.1782702e-06  -1.6579244e-04  -8.9410483e-05  -2.9734363e-05  -6.4353830e-05  -1.2281919e-04  -1.8218509e-05   3.8063488e-05  -2.3149425e-05   2.4001632e-06  -6.3820743e-05  -8.8230384e-06  -5.2121129e-06   1.3969515e-05  -5.8419357e-05  -4.2759585e-05   3.7248248e-06   6.1289728e-04   9.2454572e-05   1.1591956e-04   3.7136537e-04  -7.8839097e-05  -1.3039917e-03  -1.6165987e-04  -2.6597831e-05  -1.4695897e-04  -5.4959200e-05   9.1138634e-06  -2.1709846e-04  -5.9889588e-04  -1.8319529e-04  -1.0223690e-04  -5.3777378e-05   9.9107307e-05   7.9359441e-05   1.0270871e-04   7.6981635e-05   5.4081037e-04   7.9140642e-05   1.1813225e-04  -2.7846286e-05   2.1434592e-04   1.8337645e-04   6.5310413e-05   1.0645934e-05  -7.0017722e-05  -1.6518688e-04   2.5004984e-04   2.3706843e-04   1.0196266e-04  -1.7223018e-05  -9.2545792e-05   2.7141942e-04  -1.2623033e-04
  -9.8647552e-05  -7.9988528e-05  -5.7751420e-05  -9.8515826e-05  -6.1053356e-05  -4.1494558e-05  -2.2832495e-06  -3.3767154e-05  -6.8732144e-05  -7.9902634e-05  -7.2059205e-05  -1.0490801e-04  -1.1686381e-05   2.2770492e-05  -3.3748274e-05  -5.8256120e-05  -5.7339099e-05  -6.5784822e-05  -7.0665101e-05  -9.0270211e-05  -1.0450652e-04  -1.1860723e-04  -6.7118134e-05  -1.0107872e-04  -1.8105995e-05  -1.2388706e-04  -3.8344827e-05  -2.8038479e-05  -6.0595821e-05  -2.0772350e-05   1.6289228e-05  -1.3196906e-04  -9.2231566e-05  -4.5338014e-05  -4.9926368e-05  -3.4155741e-05   2.5005356e-05   6.7112990e-05  -8.8934037e-05  -9.7523131e-05  -7.4520081e-05  -8.5771389e-05  -4.2537968e-05  -8.6418738e-05  -3.4133972e-05  -2.5078609e-05  -4.0643673e-05  -1.2558806e-04  -1.2080881e-04  -1.8304444e-04   7.7922709e-06   2.9940501e-05  -6.2317908e-06  -2.5896467e-05  -5.2531486e-05  -9.3668001e-05  -9.5183779e-05  -1.6822141e-04  -1.6435122e-04  -6.9757139e-05  -8.3214583e-05  -4.1272442e-05  -3.6238705e-05  -1.6340358e-04  -8.2843014e-05  -5.3098432e-05  -1.1284611e-05   3.8117192e-05   6.9636413e-05  -1.3530319e-04  -1.1678797e-04  -4.5286023e-05  -2.4057754e-05   6.1263357e-06   8.3692723e-05   8.2074800e-05  -6.4007894e-04  -6.7780558e-04  -2.7970450e-04  -3.8707947e-04  -3.3751129e-04  -3.1923885e-04   1.0456739e-03   1.9595419e-04  -8.8705581e-05  -1.5071530e-04  -3.5179425e-04  -5.1188925e-04   8.7318411e-05   5.4273122e-04   1.6394796e-04  -7.8382286e-05   2.0389115e-05  -4.9237886e-04  -5.3623326e-04  -8.4638379e-04  -8.9045883e-04  -7.9267446e-04  -3.5999969e-04  -5.2504444e-04  -2.0125234e-04  -8.1884319e-04  -3.6156153e-04  -4.6532751e-04  -1.9774227e-04   4.4716711e-04   9.2330426e-05  -8.1769324e-04  -6.2931251e-04  -3.5585970e-04  -2.4794811e-04   8.7608249e-05  -5.4548451e-05  -2.5776390e-04  -1.2388115e-04  -1.4154196e-04  -7.2536796e-05  -1.1781127e-04  -8.6806371e-05  -4.1533149e-05   6.8837893e-06  -3.6998088e-05  -6.3190491e-05  -7.4276456e-05  -6.9391369e-05  -9.2836188e-05  -2.9951508e-05  -1.5914811e-05  -4.2783658e-05  -4.6445794e-05  -4.6698674e-05  -6.4521434e-05  -6.7008706e-05  -7.7519683e-05  -1.0078399e-04  -1.6778302e-04  -7.4906981e-05  -1.4594283e-04  -4.6515786e-05  -1.1673417e-04  -6.3905764e-05  -6.0519334e-05  -5.2733604e-05   6.8222935e-06  -8.7782169e-06  -1.2600183e-04  -9.4031014e-05  -3.0289919e-05  -4.3395524e-05  -1.7688349e-05   6.9452463e-06   1.7666334e-07  -5.7167816e-05  -2.7442943e-05  -6.2808266e-05  -6.8875072e-05  -4.7432194e-05  -5.3839841e-05  -1.2815891e-04  -1.3127604e-04  -9.8610129e-05  -1.0072442e-04  -4.9739150e-05  -1.0816449e-04  -4.9150001e-05  -6.5877956e-05  -1.2647658e-04  -1.1671550e-04  -7.4826893e-05  -2.3278743e-05  -3.2916752e-05  -2.1774597e-05  -4.7632370e-05  -7.1917417e-05  -4.3218034e-05  -6.7365903e-05  -7.7718349e-06  -8.9156891e-05  -2.0013509e-05  -2.6664218e-05  -7.8660579e-05  -1.8117159e-04  -6.5750438e-05  -8.2618413e-05  -6.1116323e-05  -2.5027947e-05  -6.7834387e-05  -1.1799142e-04  -5.1251085e-05   1.6120671e-05  -1.5260624e-04  -1.5918777e-04  -9.4226005e-05  -1.4844730e-04  -1.0298050e-04  -7.6197542e-05  -8.7660953e-05  -1.9548713e-05  -4.8636275e-05  -1.1548236e-04  -1.2000207e-04  -1.3752537e-04  -7.8102532e-05  -4.1996520e-05   6.2489210e-06  -1.8949521e-05  -3.8670882e-05  -1.0517128e-04  -1.0270467e-04  -1.2783586e-04  -1.6785172e-04  -1.7220250e-04  -9.7688389e-05  -1.5206947e-04  -7.5395506e-05  -1.6174198e-04  -8.8125935e-05  -8.7561141e-05  -4.0056548e-05   3.5457953e-05  -1.7860776e-05  -1.5206753e-04  -1.3393811e-04  -4.2914758e-05  -4.1419835e-05   1.2105620e-05  -1.7795259e-06  -3.4224796e-05  -2.0119004e-04  -2.2283089e-04  -1.1254180e-04  -1.5836108e-04  -1.2069274e-04  -1.1552136e-04  -5.7682429e-05  -1.0874035e-05  -6.8346836e-05  -1.5321900e-04  -1.5197387e-04  -1.9981650e-04  -8.1987492e-06  -2.8340088e-06  -3.2609496e-06  -4.5409071e-05  -5.3201940e-05  -1.8198647e-04  -1.6800813e-04  -2.2294320e-04  -2.7790778e-04  -2.4635418e-04  -1.3828757e-04  -1.6186301e-04  -7.5638970e-05  -2.6302598e-04  -1.4817746e-04  -1.4703297e-04  -5.1641083e-05   2.8707648e-05   1.7561485e-05  -2.3874024e-04  -1.8758882e-04  -4.8619950e-05  -4.7253924e-05   2.1949406e-05   3.9818112e-05   6.3295008e-05  -2.5133563e-04  -2.7071200e-04  -1.4625852e-04  -2.5210321e-04  -1.7776973e-04  -1.2893340e-04  -1.7321163e-04  -6.7723066e-05  -8.8986192e-05  -1.8301879e-04  -1.8604097e-04  -2.3077239e-04  -1.0782380e-04  -7.8381713e-05  -4.0662493e-05  -7.0368412e-05  -8.6572675e-05  -2.1310142e-04  -2.0185691e-04  -2.7757316e-04  -3.3166450e-04  -3.0719963e-04  -1.6653658e-04  -2.1542232e-04  -9.5233326e-05  -2.9727119e-04  -1.5984065e-04  -1.7476503e-04  -9.1234394e-05  -2.8505121e-05   1.7238968e-05  -3.2402843e-04  -2.2071204e-04  -5.5714896e-05  -8.0037118e-05  -2.1029414e-05   5.4695830e-05   7.5026166e-05  -7.9030744e-05  -1.0593284e-04  -8.7923462e-05  -1.3203373e-04  -1.3353770e-04  -5.9532835e-05  -9.9946298e-05  -3.8937134e-05  -2.7981452e-05  -1.9939878e-04  -1.4514576e-04  -1.6115203e-04  -1.4612358e-04  -4.1470322e-05  -1.7089066e-06   1.3349202e-05  -4.6451342e-05  -5.9783807e-05  -3.9181808e-05  -2.6273531e-05  -3.0193313e-05  -1.6151418e-04  -6.4040603e-05  -1.1395237e-04  -1.1077080e-04  -1.7874705e-04  -1.2827266e-04  -1.8319648e-04  -5.3093657e-05  -8.6259349e-05  -1.4716564e-04  -1.2921830e-04  -1.4433876e-04  -2.4974183e-05  -5.6164112e-05  -1.5107420e-05  -1.6133924e-05  -4.1682196e-05  -1.5307507e-04  -1.7390943e-04  -1.1040325e-04  -1.7315637e-04  -1.0821276e-04  -8.2735849e-05  -2.1521989e-04  -8.8760795e-05  -9.8413511e-05  -1.3181125e-04  -1.2285324e-04  -1.7117444e-04  -1.1317828e-04  -1.2430355e-04  -5.5398132e-05  -4.1293084e-05  -3.6385448e-05  -1.0435644e-04  -6.5292020e-05  -9.8632746e-05  -1.2424032e-04  -1.9225796e-04  -1.0258792e-04  -1.8523273e-04  -1.0911384e-04  -2.1619736e-04  -1.1481501e-04  -1.0470448e-04  -9.0970333e-05  -4.2552572e-05  -2.6357015e-05  -1.5184022e-04  -1.5273180e-04  -3.7363947e-05  -5.0912708e-05   1.0155939e-06  -8.7756579e-06  -6.0053972e-05   1.2799620e-05  -6.2861357e-05   3.1566553e-06  -3.1449639e-05   3.2812336e-05  -8.6090392e-06  -8.6048891e-05  -1.9539713e-05   4.9634766e-05  -3.5068405e-05  -1.8256011e-05  -6.9062292e-06  -7.2961251e-05  -5.5784960e-05   1.3429435e-05   4.5452167e-05   2.1288290e-05  -1.8884064e-05   6.5443158e-05   8.5187144e-05   4.6143872e-05  -1.1489875e-04   3.4228823e-06  -1.6628942e-04  -8.4319256e-05  -1.9695554e-05  -6.0880878e-05  -1.1902635e-04  -1.2925992e-05   2.5318597e-05  -3.8833348e-05   1.1413299e-05  -6.1288892e-05  -7.2187006e-06  -5.8375961e-06   4.9653281e-06  -7.9417573e-05  -5.6515613e-05   2.4411886e-05   7.1266712e-04   1.2625144e-04   1.5933759e-04   4.4637338e-04  -6.4319891e-05  -1.3360420e-03  -1.4267722e-04  -4.8471526e-06  -1.1917244e-04  -2.5615831e-05   5.6487286e-05  -2.2429841e-04  -6.5297460e-04  -1.5943444e-04  -1.1186710e-04  -5.4274552e-05   1.3061707e-04   1.0561650e-04   1.3469180e-04   1.2103113e-04   6.2730197e-04   1.1459886e-04   1.8974714e-04   3.1209318e-06   2.7342443e-04   2.3728772e-04   1.0836796e-04   3.3314103e-05  -9.2896636e-05  -1.6335352e-04   2.9426346e-04   2.8062672e-04   1.2961060e-04  -5.6325421e-07  -9.6569213e-05   3.0688262e-04  -8.4709792e-05
  -1.2525266e-04  -1.0761960e-04  -7.3612156e-05  -1.2379493e-04  -7.8894595e-05  -5.4869782e-05  -1.1250441e-05  -3.6330838e-05  -7.8473079e-05  -1.0069093e-04  -9.2635081e-05  -1.2968357e-04  -2.0006614e-05   1.9575691e-05  -3.4637462e-05  -6.4733679e-05  -6.6085802e-05  -8.5369919e-05  -9.0199441e-05  -1.1587252e-04  -1.3651308e-04  -1.5012807e-04  -8.4770094e-05  -1.2550922e-04  -2.8379221e-05  -1.5465600e-04  -5.4095167e-05  -4.3421201e-05  -6.9015894e-05  -2.0395557e-05   1.7812579e-05  -1.6339924e-04  -1.1574900e-04  -5.1913755e-05  -5.7249926e-05  -3.4393885e-05   3.0590573e-05   7.4052016e-05  -1.0916478e-04  -1.1276194e-04  -8.4826248e-05  -1.0026159e-04  -5.1938663e-05  -9.9991316e-05  -2.8030505e-05  -1.7959888e-05  -4.0768073e-05  -1.4091841e-04  -1.3653540e-04  -2.0381007e-04   4.7332506e-06   3.8103054e-05   4.3515619e-07  -2.6097515e-05  -5.9607373e-05  -1.0691765e-04  -1.0877028e-04  -1.9349977e-04  -1.8934135e-04  -8.1514994e-05  -9.7033211e-05  -4.3371002e-05  -3.9996213e-05  -1.9010104e-04  -9.5164873e-05  -6.4833475e-05  -9.4909155e-06   4.8805938e-05   8.4771390e-05  -1.5467428e-04  -1.3482697e-04  -4.8972939e-05  -2.5870782e-05   1.4149610e-05   1.0895074e-04   9.1143653e-05  -7.1121930e-04  -8.1755676e-04  -3.1778068e-04  -4.7315181e-04  -4.6424151e-04  -3.5443911e-04   1.2648379e-03   1.5403513e-04  -1.0675853e-04  -1.4042401e-04  -3.6400497e-04  -5.9074979e-04   1.0898956e-04   6.8962398e-04   2.0954761e-04  -4.3969422e-05   7.8590999e-05  -5.5471048e-04  -6.0758186e-04  -9.3144215e-04  -9.9934367e-04  -9.1372684e-04  -4.1741043e-04  -6.6258692e-04  -2.8863238e-04  -9.3968725e-04  -4.2898372e-04  -5.6868396e-04  -2.4987071e-04   5.8889162e-04   1.0280257e-04  -9.3080469e-04  -6.9776556e-04  -3.9930964e-04  -2.7767007e-04   1.4595535e-04  -1.1467900e-04  -4.1902630e-04  -1.3582723e-04  -1.5831649e-04  -8.0418288e-05  -1.2950866e-04  -9.7025432e-05  -4.7219688e-05   3.4062673e-06  -3.9880152e-05  -6.6825966e-05  -8.2521607e-05  -7.7119168e-05  -1.0111553e-04  -3.5551129e-05  -2.0193493e-05  -4.4294998e-05  -4.8315354e-05  -4.9177467e-05  -7.2553565e-05  -7.5375496e-05  -8.8051404e-05  -1.1336875e-04  -1.8591987e-04  -8.2905267e-05  -1.6125178e-04  -5.3847610e-05  -1.2842277e-04  -7.2270601e-05  -6.9997935e-05  -5.5533944e-05   9.4613262e-06  -1.1825251e-05  -1.3709787e-04  -1.0348144e-04  -3.1426530e-05  -4.5745758e-05  -1.6029532e-05   7.7061980e-06  -2.5822462e-06  -6.4300729e-05  -3.5596544e-05  -6.8674284e-05  -8.0462396e-05  -5.2226599e-05  -5.9662534e-05  -1.3332391e-04  -1.3697157e-04  -1.0510845e-04  -1.0642350e-04  -5.5579670e-05  -1.1731083e-04  -5.2281398e-05  -6.9955718e-05  -1.3361321e-04  -1.2543208e-04  -7.9476987e-05  -2.7690872e-05  -3.9256795e-05  -3.3244837e-05  -5.5497948e-05  -8.1100477e-05  -4.7614365e-05  -7.5710902e-05  -8.2757750e-06  -9.5202203e-05  -2.1733725e-05  -2.8252272e-05  -8.1331963e-05  -1.8867199e-04  -6.6738961e-05  -8.8416721e-05  -6.5431352e-05  -2.4246747e-05  -7.1143076e-05  -1.2225371e-04  -5.0461358e-05   1.7643784e-05  -1.6161114e-04  -1.6923193e-04  -1.0074256e-04  -1.5790282e-04  -1.0835914e-04  -8.1561840e-05  -9.4884645e-05  -1.7328600e-05  -4.9455342e-05  -1.2316437e-04  -1.2736919e-04  -1.4487560e-04  -8.3934418e-05  -4.7566601e-05   1.0132945e-05  -1.7639944e-05  -3.9062712e-05  -1.1197884e-04  -1.0892786e-04  -1.3703799e-04  -1.7922459e-04  -1.8268912e-04  -1.0360468e-04  -1.6069622e-04  -8.0901229e-05  -1.7131508e-04  -9.5446158e-05  -9.5014622e-05  -4.0441112e-05   3.9358723e-05  -1.9858271e-05  -1.6138221e-04  -1.4359330e-04  -4.4763807e-05  -4.2444614e-05   1.6426421e-05  -1.8531915e-06  -3.6858093e-05  -2.0943481e-04  -2.3751530e-04  -1.1842634e-04  -1.6428797e-04  -1.2737736e-04  -1.2118717e-04  -6.2640021e-05  -1.0061322e-05  -7.0409618e-05  -1.5786345e-04  -1.5791647e-04  -2.0599886e-04  -2.6032261e-06  -3.2101220e-06  -1.9549578e-07  -4.2536765e-05  -4.9337617e-05  -1.9197254e-04  -1.7307675e-04  -2.3247952e-04  -2.8996349e-04  -2.5741072e-04  -1.4431638e-04  -1.6926349e-04  -8.1391971e-05  -2.7478048e-04  -1.5791504e-04  -1.5771434e-04  -5.0528354e-05   3.3182486e-05   1.6490446e-05  -2.4798913e-04  -1.9538430e-04  -4.6361053e-05  -4.5835162e-05   2.9083410e-05   3.8939024e-05   6.1517863e-05  -2.6084330e-04  -2.8494211e-04  -1.5417542e-04  -2.6419511e-04  -1.8628391e-04  -1.3595954e-04  -1.7973716e-04  -6.5143762e-05  -8.9375660e-05  -1.8831404e-04  -1.9401800e-04  -2.3859647e-04  -1.0893056e-04  -8.3593139e-05  -3.6735506e-05  -6.7827805e-05  -8.4230324e-05  -2.2500154e-04  -2.1099627e-04  -2.9041746e-04  -3.4779811e-04  -3.2042520e-04  -1.7140740e-04  -2.2257899e-04  -1.0144982e-04  -3.0798209e-04  -1.6905756e-04  -1.8576054e-04  -9.3662130e-05  -2.4265958e-05   2.1679975e-05  -3.3549785e-04  -2.2795390e-04  -5.3788468e-05  -8.0364471e-05  -1.4816174e-05   6.0347055e-05   7.7039937e-05  -7.8054834e-05  -1.1277870e-04  -9.4861357e-05  -1.3819510e-04  -1.4694673e-04  -6.3039177e-05  -1.1556766e-04  -3.9835846e-05  -2.6694095e-05  -2.1759759e-04  -1.5446842e-04  -1.7607030e-04  -1.5646652e-04  -4.9678839e-05  -2.5180149e-07   2.1835059e-05  -4.5217834e-05  -5.7322219e-05  -3.4949834e-05  -2.3544014e-05  -2.0664923e-05  -1.7038091e-04  -6.3115305e-05  -1.1374490e-04  -1.1628835e-04  -1.8418513e-04  -1.3721014e-04  -1.9939772e-04  -5.3188821e-05  -8.3504984e-05  -1.5190668e-04  -1.3268617e-04  -1.4813195e-04  -2.6073380e-05  -5.5157204e-05  -8.3173145e-06  -1.7483440e-05  -4.6419302e-05  -1.8384551e-04  -2.0996884e-04  -1.2794046e-04  -1.9932053e-04  -1.3011407e-04  -1.0037830e-04  -2.1819090e-04  -9.9276780e-05  -1.0799894e-04  -1.5003447e-04  -1.4326298e-04  -2.0237670e-04  -1.2153292e-04  -1.1774974e-04  -5.7470725e-05  -4.1235112e-05  -3.7187965e-05  -1.2382933e-04  -8.6569281e-05  -1.2763196e-04  -1.5298812e-04  -2.2636198e-04  -1.2336895e-04  -2.2118140e-04  -1.3160976e-04  -2.5294586e-04  -1.3919664e-04  -1.3055972e-04  -1.0556249e-04  -3.5908575e-05  -2.9068564e-05  -1.8047793e-04  -1.8257029e-04  -4.6139001e-05  -6.2405738e-05   2.9965716e-06  -1.7094746e-05  -7.4981152e-05   2.2475341e-05  -6.0972199e-05   8.3771622e-06  -2.1661522e-05   4.2677103e-05  -3.9490721e-06  -9.4716755e-05  -3.0995035e-05   5.5602955e-05  -2.9322647e-05  -9.1991099e-06   6.8560864e-07  -8.2547973e-05  -6.5212511e-05   7.3296469e-06   4.5584110e-05   2.4845573e-05  -1.0067800e-05   7.8776691e-05   9.9765883e-05   6.2686395e-05  -1.0452666e-04   1.2721338e-05  -1.6073502e-04  -7.5822007e-05  -6.7837545e-06  -5.4536686e-05  -1.1110009e-04  -6.0077158e-06   1.1480060e-05  -5.4217909e-05   2.1775776e-05  -5.6160324e-05  -4.6590260e-06  -6.0136924e-06  -4.6222740e-06  -1.0067085e-04  -7.1337699e-05   5.0378338e-05   8.1071301e-04   1.6413043e-04   2.0824209e-04   5.2368816e-04  -4.4103994e-05  -1.3310604e-03  -1.1411074e-04   2.2362615e-05  -8.1704691e-05   1.0292868e-05   1.1226096e-04  -2.2578440e-04  -6.9584764e-04  -1.2588041e-04  -1.2001255e-04  -5.2608819e-05   1.6452727e-04   1.3440913e-04   1.7013906e-04   1.7014657e-04   7.1129488e-04   1.5314901e-04   2.6892306e-04   4.0673786e-05   3.3409487e-04   2.9367553e-04   1.5613305e-04   5.9046717e-05  -1.1673189e-04  -1.5409904e-04   3.3823631e-04   3.2440787e-04   1.5884881e-04   2.0297959e-05  -9.8068371e-05   3.4029299e-04  -3.3348585e-05
  -1.5245661e-04  -1.3655346e-04  -8.9929482e-05  -1.4960830e-04  -9.7312216e-05  -6.8689957e-05  -2.1471637e-05  -3.8142924e-05  -8.7537806e-05  -1.2184564e-04  -1.1369132e-04  -1.5443881e-04  -2.8986751e-05   1.5307990e-05  -3.4638592e-05  -7.0334827e-05  -7.4257488e-05  -1.0545216e-04  -1.0995316e-04  -1.4181097e-04  -1.6923054e-04  -1.8244829e-04  -1.0259914e-04  -1.5033143e-04  -3.9495320e-05  -1.8559880e-04  -7.0695447e-05  -5.9928195e-05  -7.6874109e-05  -1.9420556e-05   1.8998968e-05  -1.9478954e-04  -1.3939153e-04  -5.8040003e-05  -6.4095323e-05  -3.3647428e-05   3.6239525e-05   8.0099244e-05  -1.2824160e-04  -1.2603025e-04  -9.3709987e-05  -1.1294143e-04  -6.0304746e-05  -1.1234599e-04  -2.0174430e-05  -7.1021294e-06  -3.8558298e-05  -1.5463176e-04  -1.5091362e-04  -2.2115907e-04   8.5322339e-07   4.6126672e-05   9.1244372e-06  -2.4939272e-05  -6.6554149e-05  -1.1894422e-04  -1.2083423e-04  -2.1712070e-04  -2.1221779e-04  -9.1401414e-05  -1.0979264e-04  -4.2310894e-05  -4.2004116e-05  -2.1469354e-04  -1.0628512e-04  -7.5435205e-05  -5.8111616e-06   6.0994313e-05   1.0187586e-04  -1.7193644e-04  -1.5148298e-04  -5.1589157e-05  -2.6182452e-05   2.4508380e-05   1.3879631e-04   1.0142323e-04  -7.6964343e-04  -9.5050186e-04  -3.5184814e-04  -5.5714659e-04  -5.9763111e-04  -3.8506627e-04   1.5064268e-03   1.0731408e-04  -1.2418650e-04  -1.2110966e-04  -3.6781789e-04  -6.6610760e-04   1.3891616e-04   8.4755963e-04   2.6145023e-04   3.6851755e-07   1.4810844e-04  -6.1293368e-04  -6.7440836e-04  -1.0056588e-03  -1.0999614e-03  -1.0234149e-03  -4.7194848e-04  -7.9903637e-04  -3.7741224e-04  -1.0536732e-03  -4.9621757e-04  -6.7086559e-04  -3.0249770e-04   7.4664814e-04   1.1404161e-04  -1.0374617e-03  -7.6090624e-04  -4.3877423e-04  -3.0285452e-04   2.1415514e-04  -1.8302497e-04  -5.9555432e-04  -1.4496292e-04  -1.7230130e-04  -8.6699247e-05  -1.3862440e-04  -1.0563329e-04  -5.1871863e-05  -4.2548280e-10  -4.1870931e-05  -6.8897937e-05  -8.8778635e-05  -8.3037524e-05  -1.0687704e-04  -4.0441891e-05  -2.4158617e-05  -4.4502444e-05  -4.8849020e-05  -5.0195412e-05  -7.9249630e-05  -8.2254753e-05  -9.6777115e-05  -1.2375242e-04  -2.0070720e-04  -8.9104545e-05  -1.7354662e-04  -6.0331763e-05  -1.3714796e-04  -7.9251663e-05  -7.8311091e-05  -5.7026768e-05   1.2629898e-05  -1.4645526e-05  -1.4516372e-04  -1.1068712e-04  -3.1579202e-05  -4.6913750e-05  -1.3535533e-05   8.2418086e-06  -5.6873819e-06  -6.9727584e-05  -4.2494076e-05  -7.3261434e-05  -9.0788766e-05  -5.5939930e-05  -6.4445733e-05  -1.3744547e-04  -1.4114448e-04  -1.0988587e-04  -1.1028756e-04  -6.0362867e-05  -1.2445826e-04  -5.4764064e-05  -7.2689608e-05  -1.3908475e-04  -1.3243202e-04  -8.2789864e-05  -3.1639458e-05  -4.5055894e-05  -4.4821944e-05  -6.2990250e-05  -8.8809483e-05  -5.1358880e-05  -8.2848816e-05  -8.3608886e-06  -9.9604143e-05  -2.2941837e-05  -2.8970203e-05  -8.2172344e-05  -1.9455875e-04  -6.7863091e-05  -9.2485149e-05  -6.8271684e-05  -2.2776316e-05  -7.3204280e-05  -1.2512832e-04  -4.9481851e-05   1.8362080e-05  -1.6796228e-04  -1.7652494e-04  -1.0568361e-04  -1.6486155e-04  -1.1195987e-04  -8.5623778e-05  -1.0164989e-04  -1.3834021e-05  -4.8932246e-05  -1.2916342e-04  -1.3293809e-04  -1.4975381e-04  -8.8795311e-05  -5.3222492e-05   1.4629753e-05  -1.5643377e-05  -3.8764472e-05  -1.1729008e-04  -1.1365637e-04  -1.4448914e-04  -1.8809532e-04  -1.9011240e-04  -1.0783701e-04  -1.6649357e-04  -8.5366609e-05  -1.7808059e-04  -1.0136193e-04  -1.0132404e-04  -3.9804250e-05   4.2813610e-05  -2.1562583e-05  -1.6827220e-04  -1.5106065e-04  -4.5700156e-05  -4.2408132e-05   2.1263862e-05  -1.4501630e-06  -3.8396397e-05  -2.1350369e-04  -2.4795938e-04  -1.2208268e-04  -1.6668931e-04  -1.3153691e-04  -1.2452692e-04  -6.7055631e-05  -9.9431029e-06  -7.1466251e-05  -1.5910741e-04  -1.6114226e-04  -2.0808416e-04   3.3737863e-06  -3.6858981e-06   2.8652611e-06  -3.8653438e-05  -4.3804040e-05  -1.9841146e-04  -1.7459735e-04  -2.3745032e-04  -2.9651445e-04  -2.6340921e-04  -1.4769551e-04  -1.7374399e-04  -8.6102737e-05  -2.8173679e-04  -1.6529925e-04  -1.6616233e-04  -4.8315678e-05   3.6943771e-05   1.4055766e-05  -2.5296510e-04  -2.0011079e-04  -4.2841154e-05  -4.3288698e-05   3.6078954e-05   3.6175468e-05   5.6414005e-05  -2.6426702e-04  -2.9314767e-04  -1.5903151e-04  -2.7080255e-04  -1.9101806e-04  -1.4045417e-04  -1.8385744e-04  -6.1250928e-05  -8.7430622e-05  -1.8966519e-04  -1.9752062e-04  -2.4125821e-04  -1.0818447e-04  -8.8067366e-05  -3.1685331e-05  -6.3195931e-05  -7.9371363e-05  -2.3238446e-04  -2.1553123e-04  -2.9707443e-04  -3.5654659e-04  -3.2721413e-04  -1.7255830e-04  -2.2508276e-04  -1.0590580e-04  -3.1208751e-04  -1.7500910e-04  -1.9365231e-04  -9.3984471e-05  -1.9486540e-05   2.5319368e-05  -3.3948574e-04  -2.3009577e-04  -5.0208798e-05  -7.8687838e-05  -7.6456285e-06   6.4587237e-05   7.6273253e-05  -7.3479290e-05  -1.1638633e-04  -9.8902155e-05  -1.4037021e-04  -1.5666246e-04  -6.4819094e-05  -1.2609411e-04  -3.8607039e-05  -2.2975019e-05  -2.3046511e-04  -1.5897771e-04  -1.8552049e-04  -1.6294605e-04  -5.6092945e-05   2.4331360e-06   3.2239872e-05  -4.1025667e-05  -5.1930793e-05  -2.8381027e-05  -1.8265613e-05  -8.3353031e-06  -1.7515013e-04  -6.0624076e-05  -1.1006824e-04  -1.1921116e-04  -1.8496887e-04  -1.4301052e-04  -2.1190908e-04  -5.0243470e-05  -7.7164064e-05  -1.5299492e-04  -1.3149326e-04  -1.4758431e-04  -2.5358342e-05  -5.1716465e-05   1.7633647e-07  -1.8205382e-05  -5.2415943e-05  -2.1399453e-04  -2.4588041e-04  -1.4463026e-04  -2.2391521e-04  -1.5148863e-04  -1.1796091e-04  -2.1665124e-04  -1.0687309e-04  -1.1541157e-04  -1.6714887e-04  -1.6353298e-04  -2.3283342e-04  -1.2816587e-04  -1.0740258e-04  -5.6124604e-05  -3.9094468e-05  -3.6675307e-05  -1.4328414e-04  -1.0855765e-04  -1.5811432e-04  -1.8239248e-04  -2.5947750e-04  -1.4378605e-04  -2.5646354e-04  -1.5432097e-04  -2.8848135e-04  -1.6364042e-04  -1.5692408e-04  -1.1888855e-04  -2.6883874e-05  -3.0668300e-05  -2.0853138e-04  -2.1189602e-04  -5.4893088e-05  -7.3395043e-05   6.2018480e-06  -2.4566127e-05  -8.9208280e-05   3.4636329e-05  -5.5810802e-05   1.4965718e-05  -8.7806290e-06   5.3707920e-05   1.5552472e-06  -1.0135134e-04  -4.1709494e-05   6.1946243e-05  -2.1225605e-05   2.0173681e-06   1.0390354e-05  -9.1503742e-05  -7.4469771e-05   9.8524470e-07   4.5655363e-05   2.9310686e-05  -7.3130195e-08   9.2590471e-05   1.1466070e-04   8.0363265e-05  -8.8853570e-05   2.3603862e-05  -1.4910764e-04  -6.4208699e-05   8.8127572e-06  -4.5405505e-05  -9.9266820e-05   2.4605548e-06  -2.2781205e-06  -6.8247891e-05   3.3468088e-05  -4.8434188e-05  -1.1002496e-06  -5.5514708e-06  -1.4060282e-05  -1.2133774e-04  -8.7012840e-05   8.1062346e-05   9.0451313e-04   2.0508127e-04   2.6146094e-04   6.0144527e-04  -1.8889803e-05  -1.2907315e-03  -7.6965722e-05   5.4157180e-05  -3.6085584e-05   5.1389881e-05   1.7453615e-04  -2.2194023e-04  -7.2676125e-04  -8.4024849e-05  -1.2663921e-04  -4.8814458e-05   1.9985541e-04   1.6488864e-04   2.0816344e-04   2.2266627e-04   7.9035060e-04   1.9329239e-04   3.5243985e-04   8.3315533e-05   3.9389512e-04   3.5048219e-04   2.0675926e-04   8.6611662e-05  -1.4075461e-04  -1.3783585e-04   3.8062054e-04   3.6718807e-04   1.8876732e-04   4.4710090e-05  -9.7116103e-05   3.7094277e-04   2.5379347e-05
  -1.7943658e-04  -1.6594886e-04  -1.0624225e-04  -1.7520299e-04  -1.1577119e-04  -8.2539522e-05  -3.2786018e-05  -3.9188822e-05  -9.5663215e-05  -1.4276289e-04  -1.3459507e-04  -1.7841567e-04  -3.8409181e-05   1.0022716e-05  -3.3758542e-05  -7.4895471e-05  -8.1601263e-05  -1.2541513e-04  -1.2930576e-04  -1.6726986e-04  -2.0161514e-04  -2.1465837e-04  -1.2007231e-04  -1.7487033e-04  -5.1173047e-05  -2.1577986e-04  -8.7662984e-05  -7.7120135e-05  -8.3960165e-05  -1.7908458e-05   1.9729907e-05  -2.2516172e-04  -1.6243932e-04  -6.3544701e-05  -7.0264291e-05  -3.1933830e-05   4.1735141e-05   8.5017007e-05  -1.4530695e-04  -1.3674923e-04  -1.0077836e-04  -1.2316069e-04  -6.7105274e-05  -1.2299759e-04  -1.1051229e-05   7.4395058e-06  -3.3870045e-05  -1.6629268e-04  -1.6347854e-04  -2.3442786e-04  -3.8163497e-06   5.3557292e-05   1.9658081e-05  -2.2326142e-05  -7.3198032e-05  -1.2934541e-04  -1.3087128e-04  -2.3833058e-04  -2.3210374e-04  -9.8748285e-05  -1.2097452e-04  -3.7582972e-05  -4.1865909e-05  -2.3611483e-04  -1.1565166e-04  -8.4202532e-05  -1.0513115e-08   7.4598834e-05   1.2078281e-04  -1.8633055e-04  -1.6604211e-04  -5.2889871e-05  -2.4681978e-05   3.7267788e-05   1.7295342e-04   1.1309839e-04  -8.1387928e-04  -1.0737573e-03  -3.8121558e-04  -6.3670637e-04  -7.3445173e-04  -4.1045986e-04   1.7669317e-03   5.8380092e-05  -1.4043004e-04  -9.3254270e-05  -3.6353040e-04  -7.3630320e-04   1.7717852e-04   1.0127036e-03   3.1908786e-04   5.3738394e-05   2.2709479e-04  -6.6579354e-04  -7.3537455e-04  -1.0680547e-03  -1.1906649e-03  -1.1193015e-03  -5.2229123e-04  -9.3092106e-04  -4.6485515e-04  -1.1585517e-03  -5.6204107e-04  -7.6908607e-04  -3.5408028e-04   9.1644258e-04   1.2471951e-04  -1.1358434e-03  -8.1788723e-04  -4.7358862e-04  -3.2265415e-04   2.9063285e-04  -2.5816436e-04  -7.8184060e-04  -1.5081188e-04  -1.8282991e-04  -9.1045715e-05  -1.4469798e-04  -1.1222942e-04  -5.5205198e-05  -3.0304555e-06  -4.2920348e-05  -6.9296396e-05  -9.2643558e-05  -8.6792072e-05  -1.0974905e-04  -4.4348149e-05  -2.7566986e-05  -4.3387004e-05  -4.7991773e-05  -4.9635285e-05  -8.4264249e-05  -8.7278089e-05  -1.0318491e-04  -1.3139050e-04  -2.1146924e-04  -9.3161530e-05  -1.8227788e-04  -6.5658220e-05  -1.4240000e-04  -8.4497013e-05  -8.5026800e-05  -5.7131256e-05   1.6253450e-05  -1.7130240e-05  -1.4978176e-04  -1.1528070e-04  -3.0705204e-05  -4.6827184e-05  -1.0326147e-05   8.4624866e-06  -9.1022047e-06  -7.3331092e-05  -4.7830717e-05  -7.6573256e-05  -9.9596230e-05  -5.8585778e-05  -6.8140931e-05  -1.4109635e-04  -1.4406328e-04  -1.1300411e-04  -1.1251453e-04  -6.4030170e-05  -1.2961483e-04  -5.6818773e-05  -7.4336980e-05  -1.4303492e-04  -1.3777337e-04  -8.4871988e-05  -3.5012110e-05  -5.0187219e-05  -5.6187711e-05  -7.0084921e-05  -9.4942309e-05  -5.4487800e-05  -8.8654378e-05  -8.1037035e-06  -1.0248717e-04  -2.3690294e-05  -2.8886887e-05  -8.1325681e-05  -1.9928440e-04  -6.9406941e-05  -9.4899747e-05  -6.9663764e-05  -2.0764702e-05  -7.4136720e-05  -1.2689482e-04  -4.8561094e-05   1.8228202e-05  -1.7163164e-04  -1.8101210e-04  -1.0899284e-04  -1.6926451e-04  -1.1382461e-04  -8.8325328e-05  -1.0807284e-04  -9.1610873e-06  -4.7090313e-05  -1.3347582e-04  -1.3673548e-04  -1.5215481e-04  -9.2746636e-05  -5.8976599e-05   1.9657063e-05  -1.3039294e-05  -3.7875942e-05  -1.2108601e-04  -1.1689361e-04  -1.5009534e-04  -1.9436800e-04  -1.9439620e-04  -1.1034789e-04  -1.6942089e-04  -8.8795855e-05  -1.8197988e-04  -1.0577629e-04  -1.0642790e-04  -3.8207762e-05   4.5750731e-05  -2.2947379e-05  -1.7266299e-04  -1.5620525e-04  -4.5728998e-05  -4.1344763e-05   2.6516115e-05  -5.5442377e-07  -3.8843388e-05  -2.1348719e-04  -2.5394375e-04  -1.2352804e-04  -1.6562353e-04  -1.3313505e-04  -1.2557607e-04  -7.1178941e-05  -1.0761323e-05  -7.1649511e-05  -1.5717713e-04  -1.6191813e-04  -2.0634313e-04   9.2117867e-06  -4.4738458e-06   5.6902108e-06  -3.4068596e-05  -3.6953695e-05  -2.0128292e-04  -1.7277503e-04  -2.3796963e-04  -2.9767278e-04  -2.6432439e-04  -1.4849555e-04  -1.7540745e-04  -8.9798506e-05  -2.8406450e-04  -1.7037104e-04  -1.7237789e-04  -4.5244690e-05   3.9704450e-05   1.0037052e-05  -2.5389689e-04  -2.0201389e-04  -3.8329463e-05  -3.9841973e-05   4.2562496e-05   3.1404013e-05   4.7802964e-05  -2.6151431e-04  -2.9506301e-04  -1.6070280e-04  -2.7176835e-04  -1.9186924e-04  -1.4231750e-04  -1.8604703e-04  -5.6533507e-05  -8.3288940e-05  -1.8710734e-04  -1.9639629e-04  -2.3876504e-04  -1.0595414e-04  -9.1973676e-05  -2.5914037e-05  -5.6750671e-05  -7.2264330e-05  -2.3506824e-04  -2.1532102e-04  -2.9741633e-04  -3.5770577e-04  -3.2751793e-04  -1.7004956e-04  -2.2296827e-04  -1.0848955e-04  -3.0960997e-04  -1.7755989e-04  -1.9831313e-04  -9.2279101e-05  -1.4661189e-05   2.7719292e-05  -3.3595294e-04  -2.2710335e-04  -4.5144553e-05  -7.5136087e-05   2.3761649e-08   6.7032202e-05   7.2518430e-05  -6.5185782e-05  -1.1625820e-04  -9.9635491e-05  -1.3818983e-04  -1.6204849e-04  -6.4701595e-05  -1.3148417e-04  -3.5404206e-05  -1.6691974e-05  -2.3735999e-04  -1.5825634e-04  -1.8883411e-04  -1.6596204e-04  -6.0852425e-05   6.2183584e-06   4.4335002e-05  -3.3880528e-05  -4.3453386e-05  -1.9378674e-05  -1.0255569e-05   6.6873520e-06  -1.7547030e-04  -5.6724060e-05  -1.0314145e-04  -1.1957454e-04  -1.8109699e-04  -1.4543687e-04  -2.2036266e-04  -4.4217136e-05  -6.7682451e-05  -1.5104494e-04  -1.2534384e-04  -1.4265496e-04  -2.2676101e-05  -4.5980013e-05   9.9153549e-06  -1.8698357e-05  -6.0532928e-05  -2.4273700e-04  -2.8071078e-04  -1.6002733e-04  -2.4633267e-04  -1.7172293e-04  -1.3497964e-04  -2.1143308e-04  -1.1108034e-04  -1.2038632e-04  -1.8287355e-04  -1.8333120e-04  -2.6176269e-04  -1.3314080e-04  -9.4114535e-05  -5.1287162e-05  -3.4886610e-05  -3.5016698e-05  -1.6223845e-04  -1.3048544e-04  -1.8921707e-04  -2.1167221e-04  -2.9074061e-04  -1.6327536e-04  -2.9003699e-04  -1.7671489e-04  -3.2188908e-04  -1.8749950e-04  -1.8311423e-04  -1.3048263e-04  -1.6003629e-05  -3.1213549e-05  -2.3525549e-04  -2.3987674e-04  -6.3405469e-05  -8.3472002e-05   1.0536382e-05  -3.0659763e-05  -1.0208637e-04   4.9455210e-05  -4.7026844e-05   2.3038895e-05   7.2040678e-06   6.5896910e-05   7.8675435e-06  -1.0535416e-04  -5.0874770e-05   6.8760672e-05  -1.0721064e-05   1.5323145e-05   2.2196912e-05  -9.9624400e-05  -8.3212423e-05  -5.1550742e-06   4.6060358e-05   3.4891971e-05   1.0884677e-05   1.0667825e-04   1.2981910e-04   9.8890181e-05  -6.8138817e-05   3.5879001e-05  -1.3166105e-04  -4.9886986e-05   2.6778380e-05  -3.3688092e-05  -8.3884328e-05   1.2364701e-05  -1.4796660e-05  -7.9958352e-05   4.6470769e-05  -3.8222083e-05   3.4421343e-06  -4.2775780e-06  -2.2628697e-05  -1.4066701e-04  -1.0331758e-04   1.1553770e-04   9.9158245e-04   2.4783502e-04   3.1747896e-04   6.7764682e-04   1.0307872e-05  -1.2184424e-03  -3.2771693e-05   8.9349324e-05   1.5667651e-05   9.5990625e-05   2.4094272e-04  -2.1347401e-04  -7.4558288e-04  -3.5809035e-05  -1.3182587e-04  -4.3063800e-05   2.3549236e-04   1.9601644e-04   2.4760655e-04   2.7663709e-04   8.6210025e-04   2.3335354e-04   4.3663139e-04   1.2916881e-04   4.5028136e-04   4.0554404e-04   2.5814980e-04   1.1460686e-04  -1.6421766e-04  -1.1543069e-04   4.2002395e-04   4.0770625e-04   2.1837239e-04   7.1770022e-05  -9.3934944e-05   3.9820895e-04   8.8557727e-05
  -2.0536988e-04  -1.9494040e-04  -1.2208779e-04  -1.9982685e-04  -1.3373203e-04  -9.6006289e-05  -4.5014038e-05  -3.9501433e-05  -1.0261716e-04  -1.6285351e-04  -1.5472694e-04  -2.0089636e-04  -4.8058792e-05   3.7950164e-06  -3.2043057e-05  -7.8293763e-05  -8.7898055e-05  -1.4465678e-04  -1.4766390e-04  -1.9146870e-04  -2.3265439e-04  -2.4584674e-04  -1.3667949e-04  -1.9845646e-04  -6.3114206e-05  -2.4430459e-04  -1.0451053e-04  -9.4544001e-05  -9.0089930e-05  -1.5944861e-05   1.9891386e-05  -2.5358925e-04  -1.8421002e-04  -6.8278867e-05  -7.5582349e-05  -2.9310340e-05   4.6851672e-05   8.8590590e-05  -1.5959525e-04  -1.4446712e-04  -1.0571396e-04  -1.3036486e-04  -7.1887925e-05  -1.3153666e-04  -1.2020360e-06   2.5407722e-05  -2.6664757e-05  -1.7551796e-04  -1.7381114e-04  -2.4313780e-04  -9.1947531e-06   5.9990194e-05   3.1754808e-05  -1.8209787e-05  -7.9331033e-05  -1.3778461e-04  -1.3846501e-04  -2.5647188e-04  -2.4823268e-04  -1.0297800e-04  -1.3010946e-04  -2.8814085e-05  -3.9263334e-05  -2.5340816e-04  -1.2275305e-04  -9.0485900e-05   8.0716406e-06   8.9478242e-05   1.4123594e-04  -1.9719658e-04  -1.7784830e-04  -5.2652873e-05  -2.1124702e-05   5.2391981e-05   2.1086894e-04   1.2626660e-04  -8.4340092e-04  -1.1856775e-03  -4.0563729e-04  -7.1005141e-04  -8.7185325e-04  -4.3029458e-04   2.0411651e-03   9.5711057e-06  -1.5505983e-04  -5.7974811e-05  -3.5190269e-04  -8.0004737e-04   2.2308746e-04   1.1805929e-03   3.8152634e-04   1.1476131e-04   3.1305454e-04  -7.1229457e-04  -7.8948451e-04  -1.1182852e-03  -1.2703206e-03  -1.2002911e-03  -5.6746812e-04  -1.0555573e-03  -5.4879401e-04  -1.2527322e-03  -6.2546520e-04  -8.6107952e-04  -4.0327837e-04   1.0931874e-03   1.3311557e-04  -1.2247022e-03  -8.6816037e-04  -5.0339172e-04  -3.3660830e-04   3.7327920e-04  -3.3846977e-04  -9.7214346e-04  -1.5302787e-04  -1.8936902e-04  -9.3200841e-05  -1.4738679e-04  -1.1648556e-04  -5.6988718e-05  -5.3986707e-06  -4.3034012e-05  -6.7981680e-05  -9.3818558e-05  -8.8121977e-05  -1.0948085e-04  -4.7040894e-05  -3.0201251e-05  -4.1002045e-05  -4.5752939e-05  -4.7454511e-05  -8.7315978e-05  -9.0151139e-05  -1.0685286e-04  -1.3584378e-04  -2.1768802e-04  -9.4821702e-05  -1.8704703e-04  -6.9565750e-05  -1.4381309e-04  -8.7731133e-05  -8.9778754e-05  -5.5825516e-05   2.0213324e-05  -1.9206187e-05  -1.5067722e-04  -1.1700669e-04  -2.8808377e-05  -4.5471514e-05  -6.5686615e-06   8.2848976e-06  -1.2782658e-05  -7.5150484e-05  -5.1463638e-05  -7.8725885e-05  -1.0676287e-04  -6.0282187e-05  -7.0789278e-05  -1.4490183e-04  -1.4605905e-04  -1.1463946e-04  -1.1340925e-04  -6.6609363e-05  -1.3292094e-04  -5.8717623e-05  -7.5269738e-05  -1.4567561e-04  -1.4161429e-04  -8.5910246e-05  -3.7742730e-05  -5.4592818e-05  -6.7092991e-05  -7.6823783e-05  -9.9533748e-05  -5.7089866e-05  -9.3102515e-05  -7.6309712e-06  -1.0407950e-04  -2.4077240e-05  -2.8149335e-05  -7.9043343e-05  -2.0333508e-04  -7.1598165e-05  -9.5843063e-05  -6.9732119e-05  -1.8389253e-05  -7.4125404e-05  -1.2786739e-04  -4.7893805e-05   1.7248098e-05  -1.7268819e-04  -1.8274332e-04  -1.1068033e-04  -1.7114606e-04  -1.1405697e-04  -8.9661360e-05  -1.1428009e-04  -3.4652579e-06  -4.4008531e-05  -1.3616278e-04  -1.3885503e-04  -1.5216429e-04  -9.5896262e-05  -6.4840974e-05   2.5113433e-05  -9.9314815e-06  -3.6511731e-05  -1.2339063e-04  -1.1868600e-04  -1.5381097e-04  -1.9802571e-04  -1.9558214e-04  -1.1116008e-04  -1.6954621e-04  -9.1233655e-05  -1.8305143e-04  -1.0865553e-04  -1.1030944e-04  -3.5751032e-05   4.8133348e-05  -2.4005026e-05  -1.7455024e-04  -1.5897310e-04  -4.4892635e-05  -3.9335563e-05   3.2062773e-05   8.1275429e-07  -3.8286799e-05  -2.0965804e-04  -2.5544696e-04  -1.2287946e-04  -1.6129518e-04  -1.3225786e-04  -1.2447099e-04  -7.5315900e-05  -1.2689350e-05  -7.1113353e-05  -1.5244164e-04  -1.6062442e-04  -2.0122150e-04   1.4391621e-05  -5.8070387e-06   8.0610942e-06  -2.9110268e-05  -2.9206397e-05  -2.0072262e-04  -1.6795827e-04  -2.3434907e-04  -2.9376079e-04  -2.6032584e-04  -1.4688194e-04  -1.7445831e-04  -9.2551284e-05  -2.8210367e-04  -1.7326934e-04  -1.7645607e-04  -4.1592783e-05   4.1208881e-05   4.2605858e-06  -2.5116134e-04  -2.0143724e-04  -3.3142393e-05  -3.5756460e-05   4.8176150e-05   2.4578242e-05   3.5678421e-05  -2.5273317e-04  -2.9065127e-04  -1.5917658e-04  -2.6714235e-04  -1.8887299e-04  -1.4153337e-04  -1.8683934e-04  -5.1516153e-05  -7.7183787e-05  -1.8078946e-04  -1.9066076e-04  -2.3129912e-04  -1.0265425e-04  -9.5504851e-05  -1.9869294e-05  -4.8853109e-05  -6.3269114e-05  -2.3304024e-04  -2.1039432e-04  -2.9155296e-04  -3.5134567e-04  -3.2149873e-04  -1.6406162e-04  -2.1640542e-04  -1.0914339e-04  -3.0079999e-04  -1.7669247e-04  -1.9971573e-04  -8.8707434e-05  -1.0299314e-05   2.8499931e-05  -3.2512453e-04  -2.1910909e-04  -3.8817031e-05  -6.9913878e-05   7.6935479e-06   6.7362196e-05   6.5717632e-05  -5.3269055e-05  -1.1206928e-04  -9.6822693e-05  -1.3149004e-04  -1.6272473e-04  -6.2616371e-05  -1.3226927e-04  -3.0565287e-05  -7.8548655e-06  -2.3799006e-04  -1.5219072e-04  -1.8573994e-04  -1.6624384e-04  -6.4335616e-05   1.0850255e-05   5.7778792e-05  -2.3997405e-05  -3.1864255e-05  -7.9370269e-06   5.0781334e-07   2.4179802e-05  -1.7119291e-04  -5.1634499e-05  -9.3344696e-05  -1.1754591e-04  -1.7279896e-04  -1.4443189e-04  -2.2461296e-04  -3.5269129e-05  -5.5737307e-05  -1.4693480e-04  -1.1419406e-04  -1.3351504e-04  -1.8020659e-05  -3.8237055e-05   2.0314867e-05  -1.9467382e-05  -7.1588550e-05  -2.6940861e-04  -3.1362843e-04  -1.7377288e-04  -2.6609597e-04  -1.9029854e-04  -1.5097842e-04  -2.0365462e-04  -1.1164760e-04  -1.2279388e-04  -1.9703591e-04  -2.0237039e-04  -2.8849888e-04  -1.3662818e-04  -7.8925124e-05  -4.3125649e-05  -2.8737092e-05  -3.2465193e-05  -1.8024814e-04  -1.5159675e-04  -2.2005969e-04  -2.4007644e-04  -3.1941256e-04  -1.8135332e-04  -3.2096573e-04  -1.9831062e-04  -3.5239529e-04  -2.1018814e-04  -2.0850289e-04  -1.3998687e-04  -3.8986823e-06  -3.0867939e-05  -2.5999350e-04  -2.6577795e-04  -7.1491085e-05  -9.2299780e-05   1.5804787e-05  -3.4975587e-05  -1.1306947e-04   6.6967123e-05  -3.4434024e-05   3.2651727e-05   2.6184247e-05   7.9188937e-05   1.4937754e-05  -1.0621831e-04  -5.7772520e-05   7.6102309e-05   2.1436290e-06   3.0574898e-05   3.5981279e-05  -1.0676365e-04  -9.1114428e-05  -1.0662268e-05   4.7180695e-05   4.1743291e-05   2.2586374e-05   1.2082750e-04   1.4517172e-04   1.1793547e-04  -4.2884288e-05   4.9272021e-05  -1.0892772e-04  -3.3367934e-05   4.6668156e-05  -1.9712855e-05  -6.5443247e-05   2.3543124e-05  -2.5023612e-05  -8.8551193e-05   6.0731559e-05  -2.5750954e-05   8.8936419e-06  -2.0593714e-06  -2.9672676e-05  -1.5803253e-04  -1.2001786e-04   1.5255527e-04   1.0695733e-03   2.9090628e-04   3.7449885e-04   7.5022266e-04   4.2197354e-05  -1.1191552e-03   1.6496071e-05   1.2649351e-04   7.1129437e-05   1.4216493e-04   3.0875194e-04  -2.0135913e-04  -7.5278289e-04   1.6484546e-05  -1.3575958e-04  -3.5662245e-05   2.7024935e-04   2.2659341e-04   2.8707215e-04   3.2988452e-04   9.2436137e-04   2.7156803e-04   5.1756568e-04   1.7607066e-04   5.0078055e-04   4.5670317e-04   3.0805261e-04   1.4154001e-04  -1.8642064e-04  -8.8142481e-05   4.5505431e-04   4.4470723e-04   2.4663223e-04   1.0036868e-04  -8.8872917e-05   4.2158038e-04   1.5302917e-04
  -2.2946550e-04  -2.2266650e-04  -1.3701569e-04  -2.2275597e-04  -1.5066772e-04  -1.0869607e-04  -5.7960767e-05  -3.9157255e-05  -1.0821022e-04  -1.8156355e-04  -1.7350355e-04  -2.2122676e-04  -5.7731268e-05  -3.2827865e-06  -2.9574603e-05  -8.0456000e-05  -9.2971570e-05  -1.6260950e-04  -1.6448270e-04  -2.1368987e-04  -2.6140218e-04  -2.7512710e-04  -1.5195045e-04  -2.2044509e-04  -7.5011258e-05  -2.7034835e-04  -1.2076109e-04  -1.1174794e-04  -9.5110726e-05  -1.3636057e-05   1.9385137e-05  -2.7922648e-04  -2.0408205e-04  -7.2121326e-05  -7.9903459e-05  -2.5870108e-05   5.1365902e-05   9.0641503e-05  -1.7046124e-04  -1.4887292e-04  -1.0828627e-04  -1.3411489e-04  -7.4303992e-05  -1.3764740e-04   8.8234257e-06   4.6365976e-05  -1.7009406e-05  -1.8198987e-04  -1.8154662e-04  -2.4701216e-04  -1.5146708e-05   6.5104385e-05   4.5048235e-05  -1.2588420e-05  -8.4712946e-05  -1.4401053e-04  -1.4330776e-04  -2.7100756e-04  -2.5997338e-04  -1.0362611e-04  -1.3679967e-04  -1.5781427e-05  -3.3975390e-05  -2.6576740e-04  -1.2714221e-04  -9.3719992e-05   1.8503728e-05   1.0543617e-04   1.6290470e-04  -2.0399483e-04  -1.8632463e-04  -5.0688445e-05  -1.5342593e-05   6.9733915e-05   2.5172605e-04   1.4093606e-04  -8.5862828e-04  -1.2858593e-03  -4.2529841e-04  -7.7606197e-04  -1.0074800e-03  -4.4457432e-04   2.3223815e-03  -3.7172847e-05  -1.6778337e-04  -1.6980465e-05  -3.3411554e-04  -8.5646363e-04   2.7517931e-04   1.3462869e-03   4.4748817e-04   1.8161695e-04   4.0293345e-04  -7.5174429e-04  -8.3611081e-04  -1.1566125e-03  -1.3383242e-03  -1.2666348e-03  -6.0688920e-04  -1.1711076e-03  -6.2771567e-04  -1.3353096e-03  -6.8577014e-04  -9.4518749e-04  -4.4901867e-04   1.2709198e-03   1.3724549e-04  -1.3033725e-03  -9.1150366e-04  -5.2811538e-04  -3.4465190e-04   4.5955960e-04  -4.2216655e-04  -1.1608115e-03  -1.5140885e-04  -1.9154507e-04  -9.2997128e-05  -1.4648703e-04  -1.1816324e-04  -5.7054400e-05  -6.8573275e-06  -4.2270569e-05  -6.4989478e-05  -9.2126005e-05  -8.6872445e-05  -1.0595665e-04  -4.8350355e-05  -3.1879849e-05  -3.7472328e-05  -4.2207937e-05  -4.3688052e-05  -8.8201636e-05  -9.0666908e-05  -1.0747303e-04  -1.3679820e-04  -2.1902970e-04  -9.3932939e-05  -1.8762364e-04  -7.1853836e-05  -1.4118475e-04  -8.8767751e-05  -9.2282916e-05  -5.3147838e-05   2.4354741e-05  -2.0836373e-05  -1.4772933e-04  -1.1573224e-04  -2.5940927e-05  -4.2887722e-05  -2.4680548e-06   7.6365341e-06  -1.6674031e-05  -7.5361360e-05  -5.3406742e-05  -7.9927420e-05  -1.1229717e-04  -6.1233214e-05  -7.2508820e-05  -1.4948756e-04  -1.4750854e-04  -1.1507330e-04  -1.1335728e-04  -6.8213884e-05  -1.3463191e-04  -6.0754119e-05  -7.5936769e-05  -1.4726909e-04  -1.4420207e-04  -8.6155899e-05  -3.9811647e-05  -5.8276862e-05  -7.7366707e-05  -8.3293573e-05  -1.0273109e-04  -5.9293378e-05  -9.6255922e-05  -7.1069082e-06  -1.0468398e-04  -2.4236408e-05  -2.6971035e-05  -7.5659652e-05  -2.0719364e-04  -7.4588734e-05  -9.5584787e-05  -6.8686571e-05  -1.5845612e-05  -7.3406484e-05  -1.2837031e-04  -4.7611070e-05   1.5482606e-05  -1.7128905e-04  -1.8186809e-04  -1.1081814e-04  -1.7062826e-04  -1.1281576e-04  -8.9676240e-05  -1.2039467e-04   3.0486512e-06  -3.9815648e-05  -1.3733950e-04  -1.3944885e-04  -1.4994376e-04  -9.8385861e-05  -7.0822496e-05   3.0883611e-05  -6.4415556e-06  -3.4794664e-05  -1.2426370e-04  -1.1911731e-04  -1.5563779e-04  -1.9912279e-04  -1.9382187e-04  -1.1035334e-04  -1.6703779e-04  -9.2758873e-05  -1.8142318e-04  -1.1002601e-04  -1.1299278e-04  -3.2562689e-05   4.9960369e-05  -2.4741163e-05  -1.7399754e-04  -1.5939225e-04  -4.3268454e-05  -3.6500578e-05   3.7770801e-05   2.5936730e-06  -3.6889807e-05  -2.0244256e-04  -2.5264045e-04  -1.2033944e-04  -1.5404040e-04  -1.2910363e-04  -1.2143462e-04  -7.9798621e-05  -1.5823550e-05  -7.0026295e-05  -1.4539478e-04  -1.5772389e-04  -1.9329997e-04   1.8427841e-05  -7.9094405e-06   9.7890976e-06  -2.4106853e-05  -2.1025682e-05  -1.9700927e-04  -1.6061481e-04  -2.2706858e-04  -2.8528773e-04  -2.5177118e-04  -1.4310216e-04  -1.7119165e-04  -9.4471436e-05  -2.7634696e-04  -1.7422180e-04  -1.7857463e-04  -3.7651986e-05   4.1248200e-05  -3.3765285e-06  -2.4525877e-04  -1.9879555e-04  -2.7623957e-05  -3.1317591e-05   5.2603959e-05   1.5739806e-05   2.0226114e-05  -2.3830043e-04  -2.8009584e-04  -1.5455741e-04  -2.5717610e-04  -1.8219500e-04  -1.3817298e-04  -1.8678355e-04  -4.6723389e-05  -6.9425867e-05  -1.7096553e-04  -1.8049830e-04  -2.1920409e-04  -9.8704756e-05  -9.8849928e-05  -1.4011972e-05  -3.9925106e-05  -5.2816840e-05  -2.2645432e-04  -2.0094468e-04  -2.7981997e-04  -3.3780459e-04  -3.0951406e-04  -1.5488526e-04  -2.0568134e-04  -1.0785995e-04  -2.8611464e-04  -1.7250781e-04  -1.9792888e-04  -8.3505449e-05  -6.8879648e-06   2.7374543e-05  -3.0747442e-04  -2.0639989e-04  -3.1493127e-05  -6.3289542e-05   1.4859937e-05   6.5348976e-05   5.5969630e-05  -3.8034648e-05  -1.0372174e-04  -9.0441547e-05  -1.2033121e-04  -1.5860067e-04  -5.8595982e-05  -1.2949818e-04  -2.4562112e-05   3.3659890e-06  -2.3245278e-04  -1.4098403e-04  -1.7640567e-04  -1.6475281e-04  -6.7112252e-05   1.5975636e-05   7.2117824e-05  -1.1786559e-05  -1.7301149e-05   5.8569373e-06   1.3862804e-05   4.3795434e-05  -1.6241276e-04  -4.5621007e-05  -8.1193184e-05  -1.1343086e-04  -1.6052966e-04  -1.4012981e-04  -2.2473892e-04  -2.3757363e-05  -4.2183097e-05  -1.4173549e-04  -9.8265676e-05  -1.2053343e-04  -1.1534543e-05  -2.8917255e-05   3.0720032e-05  -2.1095080e-05  -8.6253708e-05  -2.9348086e-04  -3.4393990e-04  -1.8560530e-04  -2.8287152e-04  -2.0681249e-04  -1.6556855e-04  -1.9464069e-04  -1.0855971e-04  -1.2263933e-04  -2.0955481e-04  -2.2041055e-04  -3.1253003e-04  -1.3887255e-04  -6.2992271e-05  -3.2030909e-05  -2.0877941e-05  -2.9322068e-05  -1.9692066e-04  -1.7118789e-04  -2.4977848e-04  -2.6690804e-04  -3.4489927e-04  -1.9762936e-04  -3.4845652e-04  -2.1870329e-04  -3.7939728e-04  -2.3120189e-04  -2.3254134e-04  -1.4716746e-04   8.7389564e-06  -2.9884622e-05  -2.8220502e-04  -2.8898888e-04  -7.9006851e-05  -9.9627630e-05   2.1728203e-05  -3.7282603e-05  -1.2174312e-04   8.7045530e-05  -1.8047032e-05   4.3776106e-05   4.7906233e-05   9.3458550e-05   2.2688945e-05  -1.0359338e-04  -6.1818796e-05   8.3979164e-05   1.7197178e-05   4.7543806e-05   5.1491396e-05  -1.1284561e-04  -9.7889096e-05  -1.5159214e-05   4.9342993e-05   4.9918961e-05   3.4786419e-05   1.3480188e-04   1.6061941e-04   1.3709545e-04  -1.3828836e-05   6.3424043e-05  -8.1693714e-05  -1.5247647e-05   6.7908742e-05  -3.9336163e-06  -4.4556890e-05   3.5793245e-05  -3.2076445e-05  -9.3437402e-05   7.6147556e-05  -1.1379082e-05   1.5108507e-05   1.1860550e-06  -3.4635570e-05  -1.7296531e-04  -1.3685906e-04   1.9056285e-04   1.1363760e-03   3.3267008e-04   4.3049117e-04   8.1712632e-04   7.5268110e-05  -9.9921780e-04   6.8528307e-05   1.6396433e-04   1.2760609e-04   1.8784325e-04   3.7500902e-04  -1.8678716e-04  -7.4939438e-04   7.0367865e-05  -1.3871433e-04  -2.7045135e-05   3.0291377e-04   2.5530722e-04   3.2498709e-04   3.8012031e-04   9.7524861e-04   3.0618039e-04   5.9128429e-04   2.2169237e-04   5.4312779e-04   5.0193819e-04   3.5418128e-04   1.6592836e-04  -2.0673203e-04  -5.7527911e-05   4.8439597e-04   4.7701228e-04   2.7252909e-04   1.2924336e-04  -8.2383885e-05   4.4068537e-04   2.1559876e-04
  -2.5099214e-04  -2.4829951e-04  -1.5060414e-04  -2.4331825e-04  -1.6608318e-04  -1.2024587e-04  -7.1417128e-05  -3.8269717e-05  -1.1229848e-04  -1.9839103e-04  -1.9039939e-04  -2.3883910e-04  -6.7235728e-05  -1.1099902e-05  -2.6469113e-05  -8.1354685e-05  -9.6693794e-05  -1.7876080e-04  -1.7928242e-04  -2.3330239e-04  -2.8701215e-04  -3.0166728e-04  -1.6546818e-04  -2.4023388e-04  -8.6554453e-05  -2.9318483e-04  -1.3596472e-04  -1.2829034e-04  -9.8904405e-05  -1.1104780e-05   1.8135438e-05  -3.0133866e-04  -2.2151267e-04  -7.4982647e-05  -8.3115045e-05  -2.1741908e-05   5.5068524e-05   9.1036450e-05  -1.7740720e-04  -1.4979892e-04  -1.0835197e-04  -1.3409720e-04  -7.4124319e-05  -1.4111542e-04   1.8520951e-05   6.9723593e-05  -5.0685317e-06  -1.8545512e-04  -1.8638179e-04  -2.4597411e-04  -2.1477053e-05   6.8692052e-05   5.9111055e-05  -5.5012755e-06  -8.9080271e-05  -1.4785155e-04  -1.4521153e-04  -2.8154059e-04  -2.6685686e-04  -1.0036352e-04  -1.4073260e-04   1.5748310e-06  -2.5895062e-05  -2.7257833e-04  -1.2846017e-04  -9.3455605e-05   3.1262594e-05   1.2222396e-04   1.8540482e-04  -2.0633075e-04  -1.9100656e-04  -4.6856568e-05  -7.2616411e-06   8.9030025e-05   2.9447617e-04   1.5702094e-04  -8.6085134e-04  -1.3750333e-03  -4.4080030e-04  -8.3430001e-04  -1.1395266e-03  -4.5362971e-04   2.6025330e-03  -8.0393636e-05  -1.7843979e-04   2.7530584e-05  -3.1169488e-04  -9.0508659e-04   3.3125171e-04   1.5045832e-03   5.1541496e-04   2.5212064e-04   4.9328009e-04  -7.8375920e-04  -8.7500240e-04  -1.1838409e-03  -1.3945540e-03  -1.3198438e-03  -6.4036181e-04  -1.2765491e-03  -7.0079111e-04  -1.4060296e-03  -7.4250383e-04  -1.0204232e-03  -4.9050001e-04   1.4430934e-03   1.3504382e-04  -1.3717454e-03  -9.4800906e-04  -5.4796036e-04  -3.4711254e-04   5.4664156e-04  -5.0738495e-04  -1.3425524e-03  -1.4590844e-04  -1.8916298e-04  -9.0365938e-05  -1.4193934e-04  -1.1712476e-04  -5.5308503e-05  -7.2129100e-06  -4.0738601e-05  -6.0427962e-05  -8.7520336e-05  -8.3001105e-05  -9.9200557e-05  -4.8171498e-05  -3.2468095e-05  -3.2985674e-05  -3.7492546e-05  -3.8448647e-05  -8.6806090e-05  -8.8717116e-05  -1.0486481e-04  -1.3407682e-04  -2.1535905e-04  -9.0451071e-05  -1.8395927e-04  -7.2392180e-05  -1.3448371e-04  -8.7517303e-05  -9.2353242e-05  -4.9196477e-05   2.8493681e-05  -2.2019954e-05  -1.4097406e-04  -1.1145099e-04  -2.2199713e-05  -3.9173386e-05   1.7433553e-06   6.4605512e-06  -2.0711026e-05  -7.4243521e-05  -5.3818407e-05  -8.0452301e-05  -1.1631819e-04  -6.1702552e-05  -7.3479770e-05  -1.5543123e-04  -1.4880254e-04  -1.1466305e-04  -1.1278272e-04  -6.9020182e-05  -1.3509225e-04  -6.3213725e-05  -7.6825561e-05  -1.4811388e-04  -1.4585156e-04  -8.5891614e-05  -4.1237166e-05  -6.1303159e-05  -8.6904613e-05  -8.9609998e-05  -1.0476541e-04  -6.1247997e-05  -9.8247110e-05  -6.7175038e-06  -1.0464403e-04  -2.4315791e-05  -2.5607438e-05  -7.1569731e-05  -2.1130999e-04  -7.8450914e-05  -9.4445670e-05  -6.6794145e-05  -1.3330443e-05  -7.2246093e-05  -1.2871972e-04  -4.7775889e-05   1.3032412e-05  -1.6766735e-04  -1.7862177e-04  -1.0953386e-04  -1.6790914e-04  -1.1029838e-04  -8.8459413e-05  -1.2652629e-04   1.0140034e-05  -3.4685302e-05  -1.3716913e-04  -1.3871318e-04  -1.4572513e-04  -1.0037694e-04  -7.6919409e-05   3.6841938e-05  -2.7037150e-06  -3.2846638e-05  -1.2379696e-04  -1.1830237e-04  -1.5562223e-04  -1.9778089e-04  -1.8936810e-04  -1.0805761e-04  -1.6215248e-04  -9.3473663e-05  -1.7730547e-04  -1.0996889e-04  -1.1453814e-04  -2.8792861e-05   5.1267510e-05  -2.5175007e-05  -1.7113088e-04  -1.5756852e-04  -4.0964034e-05  -3.2992807e-05   4.3501197e-05   4.7000240e-06  -3.4876354e-05  -1.9240335e-04  -2.4587945e-04  -1.1617911e-04  -1.4430551e-04  -1.2397156e-04  -1.1676238e-04  -8.4934742e-05  -2.0166802e-05  -6.8558055e-05  -1.3660932e-04  -1.5373477e-04  -1.8326864e-04   2.0927940e-05  -1.0970132e-05   1.0722902e-05  -1.9365648e-05  -1.2883489e-05  -1.9054618e-04  -1.5130346e-04  -2.1675004e-04  -2.7291836e-04  -2.3918252e-04  -1.3746923e-04  -1.6596848e-04  -9.5688774e-05  -2.6740032e-04  -1.7351948e-04  -1.7897039e-04  -3.3714296e-05   3.9686137e-05  -1.2892525e-05  -2.3678646e-04  -1.9454539e-04  -2.2126689e-05  -2.6813116e-05   5.5591318e-05   5.0207924e-06   1.8177130e-06  -2.1879859e-04  -2.6379120e-04  -1.4705492e-04  -2.4230798e-04  -1.7212401e-04  -1.3238734e-04  -1.8638894e-04  -4.2636583e-05  -6.0391828e-05  -1.5797979e-04  -1.6625172e-04  -2.0297007e-04  -9.4506662e-05  -1.0217100e-04  -8.7872986e-06  -3.0423292e-05  -4.1388285e-05  -2.1561617e-04  -1.8732176e-04  -2.6276037e-04  -3.1766458e-04  -2.9208956e-04  -1.4290452e-04  -1.9118359e-04  -1.0468180e-04  -2.6619118e-04  -1.6520883e-04  -1.9310509e-04  -7.6968028e-05  -4.8481906e-06   2.4179240e-05  -2.8369846e-04  -1.8940768e-04  -2.3469984e-05  -5.5578271e-05   2.1044493e-05   6.0878608e-05   4.3532583e-05  -2.0007471e-05  -9.1351669e-05  -8.0685238e-05  -1.0500579e-04  -1.4989746e-04  -5.2777486e-05  -1.2460920e-04  -1.7975755e-05   1.6649579e-05  -2.2120987e-04  -1.2513160e-04  -1.6140612e-04  -1.6260864e-04  -6.9852043e-05   2.1162899e-05   8.6821356e-05   2.1711009e-06  -5.5325169e-08   2.1793002e-05   2.9478006e-05   6.5088597e-05  -1.4946649e-04  -3.8984053e-05  -6.7320247e-05  -1.0763323e-04  -1.4494851e-04  -1.3284481e-04  -2.2104243e-04  -1.0212735e-05  -2.7992986e-05  -1.3661410e-04  -7.8034614e-05  -1.0425794e-04  -3.5127944e-06  -1.8562318e-05   4.0444924e-05  -2.4161983e-05  -1.0498451e-04  -3.1456470e-04  -3.7109625e-04  -1.9536376e-04  -2.9645720e-04  -2.2098394e-04  -1.7843877e-04  -1.8581802e-04  -1.0203485e-04  -1.2006021e-04  -2.2043896e-04  -2.3724851e-04  -3.3350196e-04  -1.4018196e-04  -4.7507627e-05  -1.8579249e-05  -1.1615802e-05  -2.5903573e-05  -2.1192979e-04  -1.8864735e-04  -2.7756536e-04  -2.9155752e-04  -3.6676053e-04  -2.1181768e-04  -3.7188656e-04  -2.3757007e-04  -4.0248147e-04  -2.5014207e-04  -2.5477692e-04  -1.5192489e-04   2.1212212e-05  -2.8578934e-05  -3.0147578e-04  -3.0904897e-04  -8.5856261e-05  -1.0530181e-04   2.7971434e-05  -3.7532103e-05  -1.2786593e-04   1.0937898e-04   1.8830966e-06   5.6280617e-05   7.1960214e-05   1.0850401e-04   3.1002687e-05  -9.7312990e-05  -6.2607677e-05   9.2331533e-05   3.4130469e-05   6.5904249e-05   6.8342968e-05  -1.1786561e-04  -1.0331858e-04  -1.8335086e-05   5.2814949e-05   5.9375390e-05   4.7217688e-05   1.4835098e-04   1.7600206e-04   1.5590078e-04   1.8068941e-05   7.7896682e-05  -5.0978368e-05   3.8204042e-06   8.9804784e-05   1.3091135e-05  -2.1937422e-05   4.8875084e-05  -3.5301018e-05  -9.4270062e-05   9.2544018e-05   4.4145045e-06   2.1878269e-05   5.4807035e-06  -3.7100097e-05  -1.8515860e-04  -1.5355441e-04   2.2779600e-04   1.1902257e-03   3.7144964e-04   4.8330973e-04   8.7642566e-04   1.0786559e-04  -8.6605384e-04   1.2082770e-04   2.0006488e-04   1.8228365e-04   2.3092498e-04   4.3668802e-04  -1.7107022e-04  -7.3694859e-04   1.2330676e-04  -1.4103411e-04  -1.7747744e-05   3.3229506e-04   2.8080125e-04   3.5965701e-04   4.2505002e-04   1.0132775e-03   3.3554884e-04   6.5405592e-04   2.6368192e-04   5.7541755e-04   5.3947768e-04   3.9434116e-04   1.8639348e-04  -2.2459370e-04  -2.5320142e-05   5.0687475e-04   5.0356517e-04   2.9511856e-04   1.5705612e-04  -7.4994482e-05   4.5531155e-04   2.7326821e-04
  -2.6930743e-04  -2.7107346e-04  -1.6247212e-04  -2.6091867e-04  -1.7953225e-04  -1.3033505e-04  -8.5161258e-05  -3.6980039e-05  -1.1478951e-04  -2.1290044e-04  -2.0496446e-04  -2.5326962e-04  -7.6397521e-05  -1.9528454e-05  -2.2870738e-05  -8.1011259e-05  -9.8989279e-05  -1.9266751e-04  -1.9166409e-04  -2.4978208e-04  -3.0876406e-04  -3.2471491e-04  -1.7688095e-04  -2.5728141e-04  -9.7441977e-05  -3.1220467e-04  -1.4971210e-04  -1.4375218e-04  -1.0139114e-04  -8.4852959e-06   1.6094206e-05  -3.1932207e-04  -2.3605416e-04  -7.6806177e-05  -8.5141081e-05  -1.7083127e-05   5.7775694e-05   8.9699255e-05  -1.8009216e-04  -1.4721804e-04  -1.0585946e-04  -1.3013279e-04  -7.1248738e-05  -1.4183774e-04   2.7473738e-05   9.4770087e-05   8.9102402e-06  -1.8574073e-04  -1.8809097e-04  -2.4014518e-04  -2.7933645e-05   7.0685452e-05   7.3479166e-05   2.9805548e-06  -9.2156429e-05  -1.4922368e-04  -1.4411289e-04  -2.8782070e-04  -2.6858668e-04  -9.3013949e-05  -1.4169461e-04   2.3142733e-05  -1.5036115e-05  -2.7344766e-04  -1.2645812e-04  -8.9390673e-05   4.6227761e-05   1.3954279e-04   2.0832007e-04  -2.0397269e-04  -1.9155971e-04  -4.1077858e-05   3.0951282e-06   1.0990824e-04   3.3787597e-04   1.7435061e-04  -8.5209551e-04  -1.4548854e-03  -4.5306952e-04  -8.8498203e-04  -1.2667331e-03  -4.5808790e-04   2.8726929e-03  -1.1916912e-04  -1.8698251e-04   7.2989050e-05  -2.8643168e-04  -9.4584857e-04   3.8848629e-04   1.6502755e-03   5.8355542e-04   3.2382706e-04   5.8042467e-04  -8.0826649e-04  -9.0627622e-04  -1.2012514e-03  -1.4393395e-03  -1.3625007e-03  -6.6806950e-04  -1.3716079e-03  -7.6784438e-04  -1.4652410e-03  -7.9545278e-04  -1.0864523e-03  -5.2721135e-04   1.6029640e-03   1.2455379e-04  -1.4302102e-03  -9.7806819e-04  -5.6336121e-04  -3.4466566e-04   6.3157882e-04  -5.9223220e-04  -1.5126839e-03  -1.3663820e-04  -1.8221717e-04  -8.5340782e-05  -1.3383531e-04  -1.1334262e-04  -5.1734617e-05  -6.3374295e-06  -3.8590853e-05  -5.4474393e-05  -8.0089249e-05  -7.6577764e-05  -8.9376518e-05  -4.6467941e-05  -3.1882954e-05  -2.7785031e-05  -3.1797097e-05  -3.1919849e-05  -8.3110072e-05  -8.4296403e-05  -9.8988809e-05  -1.2765262e-04  -2.0674787e-04  -8.4443972e-05  -1.7618911e-04  -7.1126366e-05  -1.2385379e-04  -8.3992810e-05  -8.9910243e-05  -4.4124104e-05   3.2429905e-05  -2.2790977e-05  -1.3060478e-04  -1.0428354e-04  -1.7721388e-05  -3.4473844e-05   5.8216210e-06   4.7195839e-06  -2.4814041e-05  -7.2147736e-05  -5.2964677e-05  -8.0617090e-05  -1.1903350e-04  -6.1986220e-05  -7.3929703e-05  -1.6321311e-04  -1.5032662e-04  -1.1382253e-04  -1.1211543e-04  -6.9245455e-05  -1.3469674e-04  -6.6341106e-05  -7.8418818e-05  -1.4852384e-04  -1.4691160e-04  -8.5415333e-05  -4.2068592e-05  -6.3772042e-05  -9.5659257e-05  -9.5893981e-05  -1.0591267e-04  -6.3104685e-05  -9.9249569e-05  -6.6480633e-06  -1.0430824e-04  -2.4464015e-05  -2.4335871e-05  -6.7196594e-05  -2.1607338e-04  -8.3179703e-05  -9.2765249e-05  -6.4357462e-05  -1.1030722e-05  -7.0920240e-05  -1.2919759e-04  -4.8386868e-05   1.0031970e-05  -1.6211532e-04  -1.7331162e-04  -1.0700114e-04  -1.6325073e-04  -1.0673064e-04  -8.6138029e-05  -1.3276250e-04   1.7548963e-05  -2.8824733e-05  -1.3584508e-04  -1.3687605e-04  -1.3979404e-04  -1.0203336e-04  -8.3118457e-05   4.2857071e-05   1.1406343e-06  -3.0783162e-05  -1.2210581e-04  -1.1637920e-04  -1.5385214e-04  -1.9418114e-04  -1.8255753e-04  -1.0444507e-04  -1.5521876e-04  -9.3494302e-05  -1.7097501e-04  -1.0861189e-04  -1.1503220e-04  -2.4606262e-05   5.2124835e-05  -2.5333321e-05  -1.6613212e-04  -1.5367953e-04  -3.8111469e-05  -2.8989171e-05   4.9117296e-05   7.0190170e-06  -3.2511149e-05  -1.8019878e-04  -2.3568664e-04  -1.1072268e-04  -1.3261584e-04  -1.1723902e-04  -1.1080339e-04  -9.0960591e-05  -2.5632032e-05  -6.6866964e-05  -1.2670561e-04  -1.4918609e-04  -1.7187778e-04   2.1616331e-05  -1.5111718e-05   1.0763885e-05  -1.5156152e-05  -5.2342950e-06  -1.8184089e-04  -1.4064661e-04  -2.0412471e-04  -2.5743506e-04  -2.2322280e-04  -1.3034023e-04  -1.5919542e-04  -9.6342989e-05  -2.5594909e-04  -1.7149710e-04  -1.7792216e-04  -3.0050179e-05   3.6462598e-05  -2.4204291e-05  -2.2640261e-04  -1.8915680e-04  -1.6989342e-05  -2.2516748e-05   5.6962695e-05  -7.3553987e-06  -1.8990424e-05  -1.9499710e-04  -2.4231980e-04  -1.3697777e-04  -2.2314098e-04  -1.5905580e-04  -1.2440043e-04  -1.8608251e-04  -3.9655852e-05  -5.0499247e-05  -1.4225526e-04  -1.4841050e-04  -1.8320770e-04  -9.0408222e-05  -1.0558695e-04  -4.5930667e-06  -2.0817288e-05  -2.9485171e-05  -2.0096651e-04  -1.7001456e-04  -2.4109429e-04  -2.9172045e-04  -2.6989255e-04  -1.2857812e-04  -1.7337973e-04  -9.9693422e-05  -2.4181495e-04  -1.5508844e-04  -1.8546973e-04  -6.9431015e-05  -4.5072351e-06   1.8891852e-05  -2.5468337e-04  -1.6868956e-04  -1.5059663e-05  -4.7131599e-05   2.5830993e-05   5.3970531e-05   2.8821533e-05   9.9607253e-08  -7.5357696e-05  -6.7960657e-05  -8.6029288e-05  -1.3713073e-04  -4.5390578e-05  -1.1930544e-04  -1.1439544e-05   3.1532855e-05  -2.0507060e-04  -1.0540292e-04  -1.4170591e-04  -1.6096045e-04  -7.3275264e-05   2.5942410e-05   1.0131464e-04   1.7147609e-05   1.9422952e-05   3.9559813e-05   4.6860182e-05   8.7506521e-05  -1.3293067e-04  -3.2043896e-05  -5.2430473e-05  -1.0064503e-04  -1.2686671e-04  -1.2304522e-04  -2.1401336e-04   4.6928859e-06  -1.4200731e-05  -1.3274280e-04  -5.4218018e-05  -8.5386322e-05   5.6209034e-06  -7.7889659e-06   4.8817492e-05  -2.9202250e-05  -1.2795043e-04  -3.3241567e-04  -3.9470418e-04  -2.0299144e-04  -3.0678173e-04  -2.3265599e-04  -1.8937032e-04  -1.7861376e-04  -9.2516809e-05  -1.1531636e-04  -2.2976388e-04  -2.5272268e-04  -3.5122336e-04  -1.4089014e-04  -3.3608889e-05  -3.4885623e-06  -1.3138430e-06  -2.2504478e-05  -2.2502152e-04  -2.0347304e-04  -3.0269406e-04  -3.1351510e-04  -3.8471290e-04  -2.2374006e-04  -3.9081933e-04  -2.5468214e-04  -4.2142471e-04  -2.6672261e-04  -2.7486198e-04  -1.5429092e-04   3.2869411e-05  -2.7304215e-05  -3.1752823e-04  -3.2565737e-04  -9.1987133e-05  -1.0927055e-04   3.4160633e-05  -3.5871752e-05  -1.3137884e-04   1.3346043e-04   2.4868007e-05   6.9933344e-05   9.7787696e-05   1.2403539e-04   3.9722804e-05  -8.7431839e-05  -5.9928197e-05   1.0102941e-04   5.2495326e-05   8.5231011e-05   8.6025272e-05  -1.2188813e-04  -1.0726587e-04  -1.9972122e-05   5.7758173e-05   6.9938775e-05   5.9586859e-05   1.6120446e-04   1.9108472e-04   1.7381201e-04   5.1665209e-05   9.2186273e-05  -1.7972500e-05   2.3148098e-05   1.1155763e-04   3.0715534e-05   1.6242095e-06   6.2512287e-05  -3.4305645e-05  -9.0962936e-05   1.0965619e-04   2.1030904e-05   2.8931218e-05   1.0770590e-05  -3.6810594e-05  -1.9447397e-04  -1.6978742e-04   2.6235213e-04   1.2297857e-03   4.0561056e-04   5.3078915e-04   9.2641156e-04   1.3829070e-04  -7.2778064e-04   1.7087122e-04   2.3312784e-04   2.3238745e-04   2.6938798e-04   4.9086825e-04  -1.5556537e-04  -7.1736072e-04   1.7289011e-04  -1.4309122e-04  -8.3741403e-06   3.5730021e-04   3.0174046e-04   3.8936309e-04   4.6249460e-04   1.0374560e-03   3.5824942e-04   7.0262888e-04   2.9981037e-04   5.9621788e-04   5.6792537e-04   4.2657421e-04   2.0176237e-04  -2.3953006e-04   6.7017427e-06   5.2151096e-04   5.2348817e-04   3.1357641e-04   1.8247636e-04  -6.7257775e-05   4.6541640e-04   3.2344307e-04
  -2.8388050e-04  -2.9031244e-04  -1.7229465e-04  -2.7505919e-04  -1.9063302e-04  -1.3869700e-04  -9.8960521e-05  -3.5448991e-05  -1.1564433e-04  -2.2473881e-04  -2.1683754e-04  -2.6417232e-04  -8.5060241e-05  -2.8424841e-05  -1.8943914e-05  -7.9491777e-05  -9.9837512e-05  -2.0397194e-04  -2.0131985e-04  -2.6272344e-04  -3.2608566e-04  -3.4362212e-04  -1.8591086e-04  -2.7112342e-04  -1.0738731e-04  -3.2693503e-04  -1.6164824e-04  -1.5774864e-04  -1.0253203e-04  -5.9180110e-06   1.3248118e-05  -3.3272331e-04  -2.4736412e-04  -7.7569778e-05  -8.5944155e-05  -1.2075567e-05   5.9339258e-05   8.6617882e-05  -1.7835292e-04  -1.4123785e-04  -1.0084526e-04  -1.2217839e-04  -6.5706833e-05  -1.3981862e-04   3.5385544e-05   1.2072783e-04   2.4612055e-05  -1.8275179e-04  -1.8652613e-04  -2.2982981e-04  -3.4217836e-05   7.1159410e-05   8.7680831e-05   1.2754878e-05  -9.3667080e-05  -1.4812498e-04  -1.4007241e-04  -2.8975113e-04  -2.6505167e-04  -8.1564270e-05  -1.3958088e-04   4.8643069e-05  -1.5366522e-06  -2.6822732e-04  -1.2101587e-04  -8.1384994e-05   6.3184696e-05   1.5705705e-04   2.3122387e-04  -1.9686341e-04  -1.8780436e-04  -3.3343492e-05   1.5604119e-05   1.3189373e-04   3.8055768e-04   1.9267863e-04  -8.3496290e-04  -1.5278081e-03  -4.6327396e-04  -9.2889288e-04  -1.3883414e-03  -4.5882189e-04   3.1236124e-03  -1.5309794e-04  -1.9345137e-04   1.1665984e-04  -2.6025051e-04  -9.7904154e-04   4.4361013e-04   1.7784657e-03   6.5007914e-04   3.9416066e-04   6.6070098e-04  -8.2547121e-04  -9.3037882e-04  -1.2104623e-03  -1.4733873e-03  -1.3979991e-03  -6.9052406e-04  -1.4566107e-03  -8.2925303e-04  -1.5137751e-03  -8.4460866e-04  -1.1435460e-03  -5.5889498e-04   1.7440547e-03   1.0414440e-04  -1.4795708e-03  -1.0023234e-03  -5.7492363e-04  -3.3826719e-04   7.1150808e-04  -6.7483370e-04  -1.6672918e-03  -1.2386417e-04  -1.7089437e-04  -7.8057633e-05  -1.2241240e-04  -1.0690262e-04  -4.6396775e-05  -4.1750373e-06  -3.6011813e-05  -4.7367051e-05  -7.0048739e-05  -6.7782459e-05  -7.6782409e-05  -4.3273715e-05  -3.0097542e-05  -2.2153412e-05  -2.5357073e-05  -2.4347724e-05  -7.7189647e-05  -7.7504595e-05  -8.9948267e-05  -1.1764562e-04  -1.9347129e-04  -7.6087994e-05  -1.6462638e-04  -6.8081106e-05  -1.0960671e-04  -7.8305995e-05  -8.4985252e-05  -3.8129264e-05   3.5954232e-05  -2.3211700e-05  -1.1695861e-04  -9.4470000e-05  -1.2676406e-05  -2.8977331e-05   9.5226988e-06   2.4002460e-06  -2.8892730e-05  -6.9460663e-05  -5.1185400e-05  -8.0750380e-05  -1.2071321e-04  -6.2376941e-05  -7.4102760e-05  -1.7317738e-04  -1.5242930e-04  -1.1298760e-04  -1.1174810e-04  -6.9127724e-05  -1.3384917e-04  -7.0315892e-05  -8.1154788e-05  -1.4881309e-04  -1.4774716e-04  -8.5004711e-05  -4.2374615e-05  -6.5810278e-05  -1.0362281e-04  -1.0224759e-04  -1.0645424e-04  -6.4998351e-05  -9.9454352e-05  -7.0665461e-06  -1.0399421e-04  -2.4812524e-05  -2.3427686e-05  -6.2963231e-05  -2.2178348e-04  -8.8698046e-05  -9.0870811e-05  -6.1683783e-05  -9.1059363e-06  -6.9693303e-05  -1.3003931e-04  -4.9385450e-05   6.6268247e-06  -1.5496946e-04  -1.6629836e-04  -1.0342934e-04  -1.5696355e-04  -1.0235074e-04  -8.2869417e-05  -1.3915693e-04   2.5009534e-05  -2.2466019e-05  -1.3358264e-04  -1.3418230e-04  -1.3247401e-04  -1.0351149e-04  -8.9392037e-05   4.8795373e-05   4.9523106e-06  -2.8707211e-05  -1.1932500e-04  -1.1350186e-04  -1.5045331e-04  -1.8855194e-04  -1.7379176e-04  -9.9720626e-05  -1.4661785e-04  -9.2941999e-05  -1.6276154e-04  -1.0611999e-04  -1.1458243e-04  -2.0172049e-05   5.2631739e-05  -2.5246714e-05  -1.5923343e-04  -1.4796723e-04  -3.4860158e-05  -2.4679989e-05   5.4489929e-05   9.4203301e-06  -3.0080482e-05  -1.6654144e-04  -2.2272033e-04  -1.0431975e-04  -1.1955373e-04  -1.0934218e-04  -1.0393450e-04  -9.8003769e-05  -3.2047442e-05  -6.5096838e-05  -1.1630166e-04  -1.4458400e-04  -1.5989364e-04   2.0378706e-05  -2.0363693e-05   9.8737255e-06  -1.1694793e-05   1.5129420e-06  -1.7147257e-04  -1.2929332e-04  -1.8997846e-04  -2.3969367e-04  -2.0465359e-04  -1.2209851e-04  -1.5130237e-04  -9.6570019e-05  -2.4271588e-04  -1.6850400e-04  -1.7572172e-04  -2.6894978e-05   3.1610332e-05  -3.7123547e-05  -2.1479404e-04  -1.8308621e-04  -1.2518696e-05  -1.8670524e-05   5.6630062e-05  -2.1081689e-05  -4.1488448e-05  -1.6779825e-04  -2.1642350e-04  -1.2471475e-04  -2.0041294e-04  -1.4347542e-04  -1.1450718e-04  -1.8616383e-04  -3.8074572e-05  -4.0190491e-05  -1.2427928e-04  -1.2758034e-04  -1.6062440e-04  -8.6682140e-05  -1.0915409e-04  -1.7531061e-06  -1.1556484e-05  -1.7602906e-05  -1.8306112e-04  -1.4963432e-04  -2.1569380e-04  -2.6095038e-04  -2.4370127e-04  -1.1242211e-04  -1.5279835e-04  -9.3019664e-05  -2.1388424e-04  -1.4251492e-04  -1.7530752e-04  -6.1252875e-05  -6.0641601e-06   1.1646250e-05  -2.2146776e-04  -1.4490721e-04  -6.5761625e-06  -3.8311278e-05   2.8892505e-05   4.4780576e-05   1.2386892e-05   2.1418546e-05  -5.6386862e-05  -5.2861576e-05  -6.4120550e-05  -1.2109412e-04  -3.6753987e-05  -1.1539385e-04  -5.6116623e-06   4.7441899e-05  -1.8511887e-04  -8.2782264e-05  -1.1857809e-04  -1.6088389e-04  -7.8047783e-05   2.9843000e-05   1.1500853e-04   3.2337466e-05   4.0554996e-05   5.8736756e-05   6.5379022e-05   1.1043839e-04  -1.1359667e-04  -2.5124169e-05  -3.7282074e-05  -9.3004326e-05  -1.0722061e-04  -1.1133253e-04  -2.0430153e-04   2.0188180e-05  -1.8184922e-06  -1.3120882e-04  -2.7734624e-05  -6.4719983e-05   1.5337392e-05   2.7531784e-06   5.5235389e-05  -3.6644027e-05  -1.5498701e-04  -3.4691292e-04  -4.1452043e-04  -2.0851880e-04  -3.1388707e-04  -2.4178671e-04  -1.9823583e-04  -1.7434123e-04  -8.0635328e-05  -1.0876163e-04  -2.3764967e-04  -2.6669804e-04  -3.6566389e-04  -1.4132845e-04  -2.2296961e-05   1.2439654e-05   9.6378584e-06  -1.9374180e-05  -2.3601788e-04  -2.1529765e-04  -3.2455502e-04  -3.3238884e-04  -3.9861973e-04  -2.3332053e-04  -4.0500965e-04  -2.6989690e-04  -4.3619283e-04  -2.8077248e-04  -2.9255932e-04  -1.5441704e-04   4.3151678e-05  -2.6419687e-05  -3.3021825e-04  -3.3867904e-04  -9.7391226e-05  -1.1157889e-04   3.9920570e-05  -3.2622598e-05  -1.3241005e-04   1.5859330e-04   5.0178990e-05   8.4393033e-05   1.2468086e-04   1.3967494e-04   4.8635341e-05  -7.4226395e-05  -5.3789442e-05   1.0988178e-04   7.1713851e-05   1.0500907e-04   1.0390255e-04  -1.2504116e-04  -1.0968306e-04  -1.9948853e-05   6.4229646e-05   8.1327594e-05   7.1570434e-05   1.7308277e-04   2.0555351e-04   1.9022841e-04   8.5674174e-05   1.0573951e-04   1.6008973e-05   4.2048678e-05   1.3230236e-04   4.8229659e-05   2.5289887e-05   7.6407547e-05  -2.8979295e-05  -8.3685756e-05   1.2712046e-04   3.7774472e-05   3.5948301e-05   1.6931213e-05  -3.3683955e-05  -2.0092230e-04  -1.8521182e-04   2.9230972e-04   1.2542329e-03   4.3368274e-04   5.7087160e-04   9.6569329e-04   1.6489383e-04  -5.9270823e-04   2.1630362e-04   2.6163918e-04   2.7537154e-04   3.0141398e-04   5.3492706e-04  -1.4157321e-04  -6.9282922e-04   2.1700146e-04  -1.4525881e-04   4.3505346e-07   3.7697254e-04   3.1688431e-04   4.1245857e-04   4.9051494e-04   1.0473406e-03   3.7316205e-04   7.3447330e-04   3.2811850e-04   6.0466855e-04   5.8633619e-04   4.4927499e-04   2.1114438e-04  -2.5113975e-04   3.6861040e-05   5.2758604e-04   5.3613486e-04   3.2725551e-04   2.0426263e-04  -5.9709129e-05   4.7114566e-04   3.6413512e-04
  -2.9431075e-04  -3.0545424e-04  -1.7981313e-04  -2.8535805e-04  -1.9908188e-04  -1.4512628e-04  -1.1257713e-04  -3.3842418e-05  -1.1487876e-04  -2.3364169e-04  -2.2575858e-04  -2.7132962e-04  -9.3086060e-05  -3.7629014e-05  -1.4867172e-05  -7.6902883e-05  -9.9271218e-05  -2.1240927e-04  -2.0803901e-04  -2.7185354e-04  -3.3856609e-04  -3.5786739e-04  -1.9236080e-04  -2.8138676e-04  -1.1612790e-04  -3.3705062e-04  -1.7148179e-04  -1.6993676e-04  -1.0232773e-04  -3.5412092e-06   9.6207128e-06  -3.4124756e-04  -2.5521335e-04  -7.7286022e-05  -8.5526122e-05  -6.9173258e-06   5.9654882e-05   8.1847052e-05  -1.7220022e-04  -1.3208640e-04  -9.3424543e-05  -1.1032496e-04  -5.7655593e-05  -1.3516936e-04   4.2101540e-05   1.4678558e-04   4.1670645e-05  -1.7648109e-04  -1.8163124e-04  -2.1549535e-04  -3.9995176e-05   7.0330281e-05   1.0125916e-04   2.3698680e-05  -9.3358730e-05  -1.4463340e-04  -1.3327094e-04  -2.8739185e-04  -2.5632720e-04  -6.6169276e-05  -1.3440328e-04   7.7631651e-05   1.4344962e-05  -2.5702747e-04  -1.1215415e-04  -6.9480709e-05   8.1832384e-05   1.7439951e-04   2.5370106e-04  -1.8512728e-04  -1.7972441e-04  -2.3726218e-05   3.0041473e-05   1.5442629e-04   4.2109549e-04   2.1170002e-04  -8.1239550e-04  -1.5966011e-03  -4.7269993e-04  -9.6726383e-04  -1.5040042e-03  -4.5687968e-04   3.3464114e-03  -1.8225597e-04  -1.9791957e-04   1.5583118e-04  -2.3509173e-04  -1.0052343e-03   4.9310513e-04   1.8848724e-03   7.1320200e-04   4.6054673e-04   7.3068151e-04  -8.3582997e-04  -9.4803198e-04  -1.2133288e-03  -1.4977000e-03  -1.4302015e-03  -7.0849323e-04  -1.5323289e-03  -8.8581630e-04  -1.5528412e-03  -8.9012006e-04  -1.1924744e-03  -5.8550091e-04   1.8606311e-03   7.2702192e-05  -1.5209388e-03  -1.0216027e-03  -5.8336463e-04  -3.2905027e-04   7.8384143e-04  -7.5340788e-04  -1.8033497e-03  -1.0799590e-04  -1.5556558e-04  -6.8749259e-05  -1.0804372e-04  -9.8000461e-05  -3.9435837e-05  -7.4397040e-07  -3.3208742e-05  -3.9392743e-05  -5.7735922e-05  -5.6894889e-05  -6.1835506e-05  -3.8684967e-05  -2.7141030e-05  -1.6399012e-05  -1.8440105e-05  -1.6026409e-05  -6.9216741e-05  -6.8541968e-05  -7.7986308e-05  -1.0432358e-04  -1.7599631e-04  -6.5660538e-05  -1.4974744e-04  -6.3357786e-05  -9.2207385e-05  -7.0662316e-05  -7.7719497e-05  -3.1449195e-05   3.8865027e-05  -2.3367071e-05  -1.0050445e-04  -8.2358966e-05  -7.2592930e-06  -2.2903856e-05   1.2618002e-05  -4.8677707e-07  -3.2846557e-05  -6.6552132e-05  -4.8847266e-05  -8.1157045e-05  -1.2165253e-04  -6.3135101e-05  -7.4241336e-05  -1.8550064e-04  -1.5540243e-04  -1.1258983e-04  -1.1200437e-04  -6.8896470e-05  -1.3292990e-04  -7.5230539e-05  -8.5388960e-05  -1.4927446e-04  -1.4870050e-04  -8.4899714e-05  -4.2235248e-05  -6.7547444e-05  -1.1080601e-04  -1.0873524e-04  -1.0663984e-04  -6.7030999e-05  -9.9047815e-05  -8.1044420e-06  -1.0395484e-04  -2.5458115e-05  -2.3122059e-05  -5.9259269e-05  -2.2864218e-04  -9.4862338e-05  -8.9043306e-05  -5.9056010e-05  -7.6815973e-06  -6.8799081e-05  -1.3142043e-04  -5.0669119e-05   2.9741593e-06  -1.4658805e-04  -1.5797498e-04  -9.9050878e-05  -1.4938993e-04  -9.7396293e-05  -7.8831919e-05  -1.4572249e-04   3.2265891e-05  -1.5854741e-05  -1.3060293e-04  -1.3087975e-04  -1.2411234e-04  -1.0494065e-04  -9.5696539e-05   5.4524722e-05   8.5965891e-06  -2.6705645e-05  -1.1560109e-04  -1.0983363e-04  -1.4558449e-04  -1.8116354e-04  -1.6351508e-04  -9.4111459e-05  -1.3676467e-04  -9.1931688e-05  -1.5303144e-04  -1.0268605e-04  -1.1330737e-04  -1.5656882e-05   5.2911383e-05  -2.4947466e-05  -1.5070836e-04  -1.4072665e-04  -3.1369861e-05  -2.0259135e-05   5.9505083e-05   1.1764988e-05  -2.7870217e-05  -1.5215903e-04  -2.0773283e-04  -9.7325127e-05  -1.0571562e-04  -1.0074193e-04  -9.6542049e-05  -1.0604304e-04  -3.9156582e-05  -6.3362148e-05  -1.0597560e-04  -1.4037984e-04  -1.4805544e-04   1.7273045e-05  -2.6649426e-05   8.0755914e-06  -9.1353334e-06   7.0252763e-06  -1.6005590e-04  -1.1788724e-04  -1.7511518e-04  -2.2058453e-04  -1.8430165e-04  -1.1313337e-04  -1.4271707e-04  -9.6488202e-05  -2.2842513e-04  -1.6488269e-04  -1.7266000e-04  -2.4435713e-05   2.5253014e-05  -5.1353147e-05  -2.0264079e-04  -1.7675100e-04  -8.9693015e-06  -1.5472255e-05   5.4605180e-05  -3.5776629e-05  -6.4847064e-05  -1.3821273e-04  -1.8697536e-04  -1.1072085e-04  -1.7496577e-04  -1.2593531e-04  -1.0305367e-04  -1.8678038e-04  -3.8052065e-05  -2.9905171e-05  -1.0458544e-04  -1.0446787e-04  -1.3599674e-04  -8.3506947e-05  -1.1285779e-04  -4.9415557e-07  -3.0532145e-06  -6.2092972e-06  -1.6254596e-04  -1.2688879e-04  -1.8753676e-04  -2.2647021e-04  -2.1437261e-04  -9.4986623e-05  -1.3001213e-04  -8.4819834e-05  -1.8337058e-04  -1.2791077e-04  -1.6295100e-04  -5.2793948e-05  -9.5748460e-06   2.7283603e-06  -1.8520135e-04  -1.1880217e-04   1.6813765e-06  -2.9476375e-05   3.0016791e-05   3.3604244e-05  -5.1091829e-06   4.2966726e-05  -3.5306077e-05  -3.6139457e-05  -4.0162946e-05  -1.0280223e-04  -2.7252750e-05  -1.1460534e-04  -1.0954900e-06   6.3727641e-05  -1.6265595e-04  -5.8414820e-05  -9.3520854e-05  -1.6328979e-04  -8.4722398e-05   3.2429057e-05   1.2733522e-04   4.6885945e-05   6.2655011e-05   7.8815649e-05   8.4305388e-05   1.3323175e-04  -9.2438321e-05  -1.8531693e-05  -2.2630784e-05  -8.5267431e-05  -8.6990215e-05  -9.8394665e-05  -1.9267309e-04   3.5453190e-05   8.2168651e-06  -1.3292140e-04   3.3854546e-07  -4.3119157e-05   2.5034933e-05   1.2416257e-05   5.9200844e-05  -4.6764760e-05  -1.8558574e-04  -3.5804797e-04  -4.3043997e-04  -2.1205914e-04  -3.1789759e-04  -2.4843846e-04  -2.0499940e-04  -1.7409198e-04  -6.7172939e-05  -1.0082105e-04  -2.4424217e-04  -2.7905845e-04  -3.7693032e-04  -1.4181145e-04  -1.4361565e-05   2.8373117e-05   2.0852769e-05  -1.6686597e-05  -2.4481434e-04  -2.2389602e-04  -3.4266651e-04  -3.4790895e-04  -4.0847511e-04  -2.4057962e-04  -4.1439505e-04  -2.8315800e-04  -4.4692513e-04  -2.9223575e-04  -3.0773513e-04  -1.5255960e-04   5.1625544e-05  -2.6261081e-05  -3.3953304e-04  -3.4813968e-04  -1.0209797e-04  -1.1236388e-04   4.4901118e-05  -2.8266953e-05  -1.3126811e-04   1.8391462e-04   7.6872063e-05   9.9220041e-05   1.5180774e-04   1.5495944e-04   5.7481731e-05  -5.8195921e-05  -4.4412574e-05   1.1863150e-04   9.1090935e-05   1.2464113e-04   1.2123564e-04  -1.2750710e-04  -1.1061295e-04  -1.8249852e-05   7.2179688e-05   9.3144446e-05   8.2820105e-05   1.8369661e-04   2.1901130e-04   2.0451574e-04   1.1873442e-04   1.1798288e-04   4.9603699e-05   5.9864588e-05   1.5114054e-04   6.4900704e-05   4.8206989e-05   9.0247401e-05  -1.9491526e-05  -7.2838584e-05   1.4447396e-04   5.3878520e-05   4.2573009e-05   2.3764430e-05  -2.7810715e-05  -2.0465456e-04  -1.9945583e-04   3.1584046e-04   1.2632960e-03   4.5445592e-04   6.0173608e-04   9.9329356e-04   1.8618491e-04  -4.6878580e-04   2.5510330e-04   2.8435133e-04   3.0907880e-04   3.2549655e-04   5.6670713e-04  -1.3024823e-04  -6.6567749e-04   2.5396749e-04  -1.4786118e-04   8.0603730e-06   3.9056727e-04   3.2516935e-04   4.2746572e-04   5.0752346e-04   1.0430667e-03   3.7954722e-04   7.4796767e-04   3.4704411e-04   6.0053101e-04   5.9427779e-04   4.6129818e-04   2.1399957e-04  -2.5907982e-04   6.3718069e-05   5.2467082e-04   5.4111502e-04   3.3572104e-04   2.2134556e-04  -5.2821715e-05   4.7281866e-04   3.9408096e-04
  -3.0034437e-04  -3.1607264e-04  -1.8484327e-04  -2.9155977e-04  -2.0466467e-04  -1.4948470e-04  -1.2576880e-04  -3.2321844e-05  -1.1256148e-04  -2.3944218e-04  -2.3157180e-04  -2.7465297e-04  -1.0035243e-04  -4.6967156e-05  -1.0823359e-05  -7.3385209e-05  -9.7373916e-05  -2.1781376e-04  -2.1171426e-04  -2.7703147e-04  -3.4596518e-04  -3.6707185e-04  -1.9611690e-04  -2.8780275e-04  -1.2343369e-04  -3.4237873e-04  -1.7899296e-04  -1.8002618e-04  -1.0081869e-04  -1.4864145e-06   5.2731610e-06  -3.4476659e-04  -2.5948683e-04  -7.6000128e-05  -8.3927838e-05  -1.8137714e-06   5.8669796e-05   7.5510227e-05  -1.6182244e-04  -1.2010279e-04  -8.3788119e-05  -9.4796115e-05  -4.7366572e-05  -1.2810116e-04   4.7615536e-05   1.7215726e-04   5.9694451e-05  -1.6702104e-04  -1.7344683e-04  -1.9774390e-04  -4.4916841e-05   6.8540763e-05   1.1380011e-04   3.5673384e-05  -9.1019879e-05  -1.3889841e-04  -1.2399571e-04  -2.8095294e-04  -2.4267350e-04  -4.7155672e-05  -1.2629339e-04   1.0950991e-04   3.2238622e-05  -2.4021809e-04  -1.0004201e-04  -5.3902310e-05   1.0179336e-04   1.9118981e-04   2.7536995e-04  -1.6906891e-04  -1.6747979e-04  -1.2383981e-05   4.6092004e-05   1.7688557e-04   4.5809448e-04   2.3106980e-04  -7.8744764e-04  -1.6641514e-03  -4.8261433e-04  -1.0016073e-03  -1.6136602e-03  -4.5339452e-04   3.5333380e-03  -2.0709679e-04  -2.0046449e-04   1.8804240e-04  -2.1275943e-04  -1.0252018e-03   5.3348675e-04   1.9661576e-03   7.7132261e-04   5.2058220e-04   7.8742345e-04  -8.3998244e-04  -9.6017421e-04  -1.2117753e-03  -1.5134758e-03  -1.4630651e-03  -7.2290961e-04  -1.5997815e-03  -9.3859173e-04  -1.5838687e-03  -9.3221311e-04  -1.2343916e-03  -6.0712779e-04   1.9481827e-03   2.9796394e-05  -1.5556143e-03  -1.0368544e-03  -5.8944418e-04  -3.1821465e-04   8.4646577e-04  -8.2629891e-04  -1.9187761e-03  -8.9566223e-05  -1.3677011e-04  -5.7733054e-05  -9.1221123e-05  -8.6934081e-05  -3.1064329e-05   3.8661517e-06  -3.0399949e-05  -3.0874512e-05  -4.3588875e-05  -4.4279493e-05  -4.5054754e-05  -3.2858474e-05  -2.3095013e-05  -1.0836491e-05  -1.1331698e-05  -7.2847248e-06  -5.9447863e-05  -5.7700995e-05  -6.3476884e-05  -8.8089334e-05  -1.5496027e-04  -5.3526482e-05  -1.3216779e-04  -5.7129095e-05  -7.2254491e-05  -6.1349804e-05  -6.8355396e-05  -2.4346111e-05   4.0978983e-05  -2.3356295e-05  -8.1819793e-05  -6.8389769e-05  -1.6790277e-06  -1.6493564e-05   1.4906747e-05  -3.9025217e-06  -3.6566898e-05  -6.3750108e-05  -4.6305484e-05  -8.2090794e-05  -1.2214429e-04  -6.4455934e-05  -7.4560056e-05  -2.0017663e-04  -1.5945755e-04  -1.1301618e-04  -1.1310765e-04  -6.8751900e-05  -1.3225768e-04  -8.1078746e-05  -9.1364877e-05  -1.5017231e-04  -1.5007774e-04  -8.5281734e-05  -4.1728287e-05  -6.9100839e-05  -1.1721918e-04  -1.1536322e-04  -1.0665945e-04  -6.9259986e-05  -9.8189171e-05  -9.8451748e-06  -1.0435855e-04  -2.6452824e-05  -2.3601464e-05  -5.6416851e-05  -2.3673391e-04  -1.0148671e-04  -8.7494370e-05  -5.6710549e-05  -6.8395104e-06  -6.8426249e-05  -1.3344971e-04  -5.2110993e-05  -7.8159782e-07  -1.3733621e-04  -1.4874725e-04  -9.4108457e-05  -1.4088566e-04  -9.2092530e-05  -7.4214996e-05  -1.5242165e-04   3.9085952e-05  -9.2371090e-06  -1.2711873e-04  -1.2720382e-04  -1.1505975e-04  -1.0641709e-04  -1.0197201e-04   5.9918862e-05   1.1952932e-05  -2.4843296e-05  -1.1108907e-04  -1.0554081e-04  -1.3943046e-04  -1.7231246e-04  -1.5219040e-04  -8.7855161e-05  -1.2608720e-04  -9.0567466e-05  -1.4217093e-04  -9.8518010e-05  -1.1133018e-04  -1.1216562e-05   5.3101291e-05  -2.4463156e-05  -1.4086290e-04  -1.3229375e-04  -2.7801165e-05  -1.5914331e-05   6.4068478e-05   1.3913328e-05  -2.6144123e-05  -1.3774758e-04  -1.9153240e-04  -9.0079354e-05  -9.1684948e-05  -9.1898640e-05  -8.8998022e-05  -1.1488170e-04  -4.6646186e-05  -6.1743566e-05  -9.6222653e-05  -1.3693829e-04  -1.3702727e-04   1.2536166e-05  -3.3771155e-05   5.4583882e-06  -7.5584224e-06   1.1063425e-05  -1.4821763e-04  -1.0703379e-04  -1.6031527e-04  -2.0098528e-04  -1.6300690e-04  -1.0382067e-04  -1.3384442e-04  -9.6190601e-05  -2.1375936e-04  -1.6094688e-04  -1.6899656e-04  -2.2798516e-05   1.7608871e-05  -6.6497543e-05  -1.9058198e-04  -1.7051327e-04  -6.5304769e-06  -1.3065584e-05   5.0995015e-05  -5.1005557e-05  -8.8165206e-05  -1.0730086e-04  -1.5494082e-04  -9.5495132e-05  -1.4770861e-04  -1.0703137e-04  -9.0431654e-05  -1.8791643e-04  -3.9607049e-05  -2.0065651e-05  -8.3735554e-05  -7.9844335e-05  -1.1014149e-04  -8.0962409e-05  -1.1660567e-04  -9.3426019e-07   4.3430462e-06   4.2814511e-06  -1.4013204e-04  -1.0255856e-04  -1.5767196e-04  -1.8949173e-04  -1.8281240e-04  -7.6837934e-05  -1.0562459e-04  -7.5282015e-05  -1.5128473e-04  -1.1173816e-04  -1.4876232e-04  -4.4400150e-05  -1.4940210e-05  -7.4319776e-06  -1.4709874e-04  -9.1172352e-05   9.4394448e-06  -2.0963752e-05   2.9118476e-05   2.0866138e-05  -2.2929533e-05   6.3717986e-05  -1.3170293e-05  -1.8653090e-05  -1.5164029e-05  -8.3426051e-05  -1.7313436e-05  -1.1845366e-04   1.5797050e-06   7.9700516e-05  -1.3910882e-04  -3.3523405e-05  -6.8157885e-05  -1.6883090e-04  -9.3664666e-05   3.3345398e-05   1.3779240e-04   5.9954023e-05   8.4975405e-05   9.9212767e-05   1.0285858e-04   1.5521856e-04  -7.0560637e-05  -1.2548178e-05  -9.2122194e-06  -7.7971234e-05  -6.7162809e-05  -8.4954444e-05  -1.7995504e-04   4.9670942e-05   1.5120395e-05  -1.3854854e-04   2.8831887e-05  -2.1454913e-05   3.4080034e-05   2.0610623e-05   6.0361403e-05  -5.9649666e-05  -2.1892633e-04  -3.6590731e-04  -4.4247743e-04  -2.1378689e-04  -3.1900736e-04  -2.5275495e-04  -2.0970955e-04  -1.7864727e-04  -5.3008739e-05  -9.1962365e-05  -2.4968908e-04  -2.8970976e-04  -3.8525381e-04  -1.4259678e-04  -1.0322981e-05   4.3512025e-05   3.1965150e-05  -1.4530318e-05  -2.5137397e-04  -2.2918584e-04  -3.5669076e-04  -3.5993052e-04  -4.1438419e-04  -2.4561787e-04  -4.1907972e-04  -2.9447470e-04  -4.5391055e-04  -3.0115804e-04  -3.2035388e-04  -1.4905510e-04   5.8010351e-05  -2.7110469e-05  -3.4556965e-04  -3.5421037e-04  -1.0616563e-04  -1.1183439e-04   4.8805696e-05  -2.3395796e-05  -1.2841962e-04   2.0842599e-04   1.0383002e-04   1.1388603e-04   1.7825041e-04   1.6936237e-04   6.5957012e-05  -4.0030372e-05  -3.2217509e-05   1.2697541e-04   1.0984239e-04   1.4346851e-04   1.3722639e-04  -1.2949879e-04  -1.1018685e-04  -1.4956891e-05   8.1443518e-05   1.0490719e-04   9.2968623e-05   1.9275328e-04   2.3099014e-04   2.1602539e-04   1.4947346e-04   1.2834446e-04   8.1471127e-05   7.5996667e-05   1.6717828e-04   7.9996814e-05   6.9550469e-05   1.0371025e-04  -6.2569525e-06  -5.9021082e-05   1.6116921e-04   6.8539815e-05   4.8435734e-05   3.1006576e-05  -1.9442941e-05  -2.0592217e-04  -2.1213524e-04   3.3134558e-04   1.2572934e-03   4.6707291e-04   6.2192038e-04   1.0087141e-03   2.0092920e-04  -3.6300091e-04   2.8574072e-04   3.0037737e-04   3.3190273e-04   3.4052535e-04   5.8465331e-04  -1.2251042e-04  -6.3820974e-04   2.8267930e-04  -1.5114866e-04   1.3937775e-05   3.9756566e-04   3.2578180e-04   4.3318038e-04   5.1238295e-04   1.0253509e-03   3.7708823e-04   7.4252036e-04   3.5552925e-04   5.8419659e-04   5.9186113e-04   4.6204702e-04   2.1017037e-04  -2.6306050e-04   8.6181988e-05   5.1265660e-04   5.3832010e-04   3.3878056e-04   2.3290896e-04  -4.6963004e-05   4.7092917e-04   4.1282919e-04
  -3.0188074e-04  -3.2189257e-04  -1.8728260e-04  -2.9354731e-04  -2.0726301e-04  -1.5170464e-04  -1.3829384e-04  -3.1033941e-05  -1.0881029e-04  -2.4207208e-04  -2.3422961e-04  -2.7418464e-04  -1.0675385e-04  -5.6253147e-05  -6.9905303e-06  -6.9106255e-05  -9.4273856e-05  -2.2012088e-04  -2.1233764e-04  -2.7825165e-04  -3.4821326e-04  -3.7101289e-04  -1.9714969e-04  -2.9021428e-04  -1.2911500e-04  -3.4290094e-04  -1.8403924e-04  -1.8778451e-04  -9.8083373e-05   1.2886354e-07   3.0470119e-07  -3.4331481e-04  -2.6018321e-04  -7.3788407e-05  -8.1226735e-05   3.0312172e-06   5.6385105e-05   6.7795710e-05  -1.4757965e-04  -1.0572141e-04  -7.2193144e-05  -7.5936099e-05  -3.5210725e-05  -1.1891376e-04   5.2049740e-05   1.9611696e-04   7.8274321e-05  -1.5456120e-04  -1.6211368e-04  -1.7728732e-04  -4.8642490e-05   6.6229787e-05   1.2495095e-04   4.8528851e-05  -8.6494154e-05  -1.3113218e-04  -1.1262862e-04  -2.7078630e-04  -2.2452890e-04  -2.5014046e-05  -1.1550274e-04   1.4354176e-04   5.1677264e-05  -2.1842432e-04  -8.4999370e-05  -3.5063945e-05   1.2262859e-04   2.0704935e-04   2.9589668e-04  -1.4917464e-04  -1.5140573e-04   4.3655206e-07   6.3357967e-05   1.9861349e-04   4.9027844e-04   2.5042184e-04  -7.6303145e-04  -1.7331140e-03  -4.9414075e-04  -1.0335418e-03  -1.7174075e-03  -4.4950381e-04   3.6784786e-03  -2.2834247e-04  -2.0111444e-04   2.1128872e-04  -1.9480289e-04  -1.0398240e-03   5.6155530e-04   2.0201713e-03   8.2314530e-04   5.7217834e-04   8.2867050e-04  -8.3870455e-04  -9.6786269e-04  -1.2076759e-03  -1.5220113e-03  -1.5002344e-03  -7.3476052e-04  -1.6600428e-03  -9.8870049e-04  -1.6083551e-03  -9.7112831e-04  -1.2706567e-03  -6.2395583e-04   2.0038095e-03  -2.4207204e-05  -1.5849538e-03  -1.0490504e-03  -5.9389385e-04  -3.0691663e-04   8.9790356e-04  -8.9201347e-04  -2.0124242e-03  -6.9209036e-05  -1.1519089e-04  -4.5397307e-05  -7.2532356e-05  -7.4090668e-05  -2.1557285e-05   9.5041838e-06  -2.7800244e-05  -2.2155810e-05  -2.8126280e-05  -3.0368235e-05  -2.7036177e-05  -2.5997569e-05  -1.8087052e-05  -5.7705651e-06  -4.3220193e-06   1.5307322e-06  -4.8216949e-05  -4.5352454e-05  -4.6906814e-05  -6.9464604e-05  -1.3114263e-04  -4.0122467e-05  -1.1261297e-04  -4.9630148e-05  -5.0450759e-05  -5.0722745e-05  -5.7225405e-05  -1.7094573e-05   4.2142830e-05  -2.3285204e-05  -6.1565776e-05  -5.3071926e-05   3.8508158e-06  -9.9957110e-06   1.6228055e-05  -7.7817435e-06  -3.9941673e-05  -6.1302575e-05  -4.3865625e-05  -8.3733187e-05  -1.2244864e-04  -6.6453983e-05  -7.5229348e-05  -2.1700729e-04  -1.6471580e-04  -1.1459162e-04  -1.1516693e-04  -6.8839146e-05  -1.3206615e-04  -8.7746182e-05  -9.9186596e-05  -1.5172474e-04  -1.5211594e-04  -8.6257717e-05  -4.0919000e-05  -7.0560862e-05  -1.2285919e-04  -1.2206831e-04  -1.0662002e-04  -7.1687601e-05  -9.7000142e-05  -1.2310525e-05  -1.0526767e-04  -2.7792784e-05  -2.4977100e-05  -5.4690311e-05  -2.4603730e-04  -1.0835359e-04  -8.6349403e-05  -5.4814588e-05  -6.6126071e-06  -6.8704585e-05  -1.3616417e-04  -5.3577166e-05  -4.5119134e-06  -1.2756882e-04  -1.3901326e-04  -8.8841336e-05  -1.3180735e-04  -8.6640631e-05  -6.9209787e-05  -1.5916316e-04   4.5272673e-05  -2.8491286e-06  -1.2332704e-04  -1.2336771e-04  -1.0565916e-04  -1.0799554e-04  -1.0814212e-04   6.4859757e-05   1.4918104e-05  -2.3165520e-05  -1.0594711e-04  -1.0078672e-04  -1.3219793e-04  -1.6231404e-04  -1.4027754e-04  -8.1190590e-05  -1.1500942e-04  -8.8935439e-05  -1.3056960e-04  -9.3828511e-05  -1.0877274e-04  -6.9925016e-06   5.3345840e-05  -2.3817361e-05  -1.3002928e-04  -1.2303215e-04  -2.4309842e-05  -1.1818815e-05   6.8108964e-05   1.5733701e-05  -2.5126639e-05  -1.2393826e-04  -1.7493236e-04  -8.2879156e-05  -7.8001182e-05  -8.3242903e-05  -8.1636118e-05  -1.2414518e-04  -5.4156017e-05  -6.0287409e-05  -8.7427267e-05  -1.3451200e-04  -1.2736770e-04   6.5757464e-06  -4.1414102e-05   2.1664400e-06  -6.9710174e-06   1.3495931e-05  -1.3655335e-04  -9.7274442e-05  -1.4628185e-04  -1.8172591e-04  -1.4158744e-04  -9.4507421e-05  -1.2504877e-04  -9.5737353e-05  -1.9933315e-04  -1.5696343e-04  -1.6495487e-04  -2.2045487e-05   8.9794879e-06  -8.2072715e-05  -1.7918508e-04  -1.6466272e-04  -5.3132280e-06  -1.1529901e-05   4.5995514e-05  -6.6297913e-05  -1.1051681e-04  -7.6131831e-05  -1.2134042e-04  -7.9562828e-05  -1.1958016e-04  -8.7385718e-05  -7.7059915e-05  -1.8939261e-04  -4.2617766e-05  -1.1051790e-05  -6.2305130e-05  -5.4518947e-05  -8.3886500e-05  -7.9025940e-05  -1.2023611e-04  -3.0727974e-06   1.0359769e-05   1.3525536e-05  -1.1656681e-04  -7.7468357e-05  -1.2717472e-04  -1.5127952e-04  -1.4994740e-04  -5.8540037e-05  -8.0257091e-05  -6.4622679e-05  -1.1863819e-04  -9.4477105e-05  -1.3312638e-04  -3.6382992e-05  -2.1916043e-05  -1.8291279e-05  -1.0839085e-04  -6.2841967e-05   1.6462496e-05  -1.3071812e-05   2.6247408e-05   7.0950245e-06  -4.0299346e-05   8.2653105e-05   8.8466626e-06  -1.3138529e-06   9.8165274e-06  -6.4217181e-05  -7.3805713e-06  -1.2807527e-04   2.0110238e-06   9.4677605e-05  -1.1592909e-04  -9.3363463e-06  -4.4105744e-05  -1.7785806e-04  -1.0501452e-04   3.2333735e-05   1.4595573e-04   7.0779549e-05   1.0674427e-04   1.1929895e-04   1.2025928e-04   1.7576539e-04  -4.9135394e-05  -7.4103336e-06   2.3121972e-06  -7.1603040e-05  -4.8656542e-05  -7.1741276e-05  -1.6698631e-04   6.2077629e-05   1.8305140e-05  -1.4845581e-04   5.6538118e-05  -5.6834506e-07   4.1849298e-05   2.6831421e-05   5.8534039e-05  -7.5173766e-05  -2.5390306e-04  -3.7064353e-04  -4.5074176e-04  -2.1391868e-04  -3.1744950e-04  -2.5494197e-04  -2.1248826e-04  -1.8841219e-04  -3.9054847e-05  -8.2664178e-05  -2.5412373e-04  -2.9856727e-04  -3.9094424e-04  -1.4388484e-04  -1.0396698e-05   5.7143721e-05   4.2660883e-05  -1.2903554e-05  -2.5572170e-04  -2.3121872e-04  -3.6644583e-04  -3.6842561e-04  -4.1653882e-04  -2.4860051e-04  -4.1930736e-04  -3.0390907e-04  -4.5755617e-04  -3.0767271e-04  -3.3045824e-04  -1.4428954e-04   6.2187092e-05  -2.9175610e-05  -3.4852767e-04  -3.5718858e-04  -1.0967511e-04  -1.1025743e-04   5.1409246e-05  -1.8666078e-05  -1.2445223e-04   2.3104832e-04   1.2981919e-04   1.2780970e-04   2.0304149e-04   1.8230441e-04   7.3718829e-05  -2.0580144e-05  -1.7793334e-05   1.3458230e-04   1.2713955e-04   1.6079365e-04   1.5103506e-04  -1.3125503e-04  -1.0860454e-04  -1.0240637e-05   9.1766523e-05   1.1607725e-04   1.0163980e-04   1.9997075e-04   2.4096477e-04   2.2412746e-04   1.7657740e-04   1.3628988e-04   1.1036401e-04   8.9929784e-05   1.7957509e-04   9.2840429e-05   8.8548634e-05   1.1648506e-04   1.0101219e-05  -4.2982390e-05   1.7658521e-04   8.0951458e-05   5.3167531e-05   3.8346226e-05  -8.9682035e-06  -2.0505568e-04  -2.2286346e-04   3.3756268e-04   1.2371170e-03   4.7110574e-04   6.3042382e-04   1.0119778e-03   2.0823623e-04  -2.8083323e-04   3.0729982e-04   3.0926138e-04   3.4288899e-04   3.4586904e-04   5.8793916e-04  -1.1899402e-04  -6.1255631e-04   3.0266936e-04  -1.5526066e-04   1.7612193e-05   3.9773009e-04   3.1820338e-04   4.2875815e-04   5.0447600e-04   9.9543569e-04   3.6590843e-04   7.1860522e-04   3.5308480e-04   5.5664262e-04   5.7970639e-04   4.5149449e-04   1.9989505e-04  -2.6281800e-04   1.0360637e-04   4.9176129e-04   5.2792285e-04   3.3649434e-04   2.3843295e-04  -4.2356887e-05   4.6612142e-04   4.2072696e-04
  -2.9897385e-04  -3.2280065e-04  -1.8711206e-04  -2.9133970e-04  -2.0685859e-04  -1.5178825e-04  -1.4991368e-04  -3.0097259e-05  -1.0378636e-04  -2.4155973e-04  -2.3378747e-04  -2.7008870e-04  -1.1219707e-04  -6.5291219e-05  -3.5335905e-06  -6.4252355e-05  -9.0136630e-05  -2.1936392e-04  -2.0999864e-04  -2.7563430e-04  -3.4540704e-04  -3.6963022e-04  -1.9551117e-04  -2.8858386e-04  -1.3302800e-04  -3.3874735e-04  -1.8655612e-04  -1.9304427e-04  -9.4233178e-05   1.2096302e-06  -5.1522158e-06  -3.3708422e-04  -2.5740908e-04  -7.0754068e-05  -7.7533172e-05   7.4248836e-06   5.2858096e-05   5.8950141e-05  -1.2999034e-04  -8.9462869e-05  -5.8952848e-05  -5.4205181e-05  -2.1645470e-05  -1.0798491e-04   5.5637831e-05   2.1804159e-04   9.7009318e-05  -1.3939258e-04  -1.4788198e-04  -1.5491290e-04  -5.0865267e-05   6.3897728e-05   1.3443652e-04   6.2109483e-05  -7.9702261e-05  -1.2160823e-04  -9.9623853e-05  -2.5737434e-04  -2.0249866e-04  -3.9379222e-07  -1.0239987e-04   1.7887566e-04   7.2113140e-05  -1.9250463e-04  -6.7492090e-05  -1.3549338e-05   1.4385129e-04   2.2162100e-04   3.1501195e-04  -1.2609446e-04  -1.3200677e-04   1.4406747e-05   8.1376364e-05   2.1895227e-04   5.1657734e-04   2.6939613e-04  -7.4166464e-04  -1.8056099e-03  -5.0812485e-04  -1.0645914e-03  -1.8153661e-03  -4.4625364e-04   3.7783666e-03  -2.4684553e-04  -1.9982450e-04   2.2421069e-04  -1.8238641e-04  -1.0499842e-03   5.7468642e-04   2.0461545e-03   8.6778071e-04   6.1369082e-04   8.5303745e-04  -8.3282168e-04  -9.7220815e-04  -1.2027084e-03  -1.5245848e-03  -1.5446735e-03  -7.4498341e-04  -1.7140615e-03  -1.0371530e-03  -1.6277131e-03  -1.0070579e-03  -1.3026917e-03  -6.3616969e-04   2.0265090e-03  -8.8071546e-05  -1.6102383e-03  -1.0591120e-03  -5.9735436e-04  -2.9614303e-04   9.3743320e-04  -9.4926245e-04  -2.0840439e-03  -4.7630604e-05  -9.1622230e-05  -3.2183135e-05  -5.2634396e-05  -5.9928122e-05  -1.1238774e-05   1.5970272e-05  -2.5610288e-05  -1.3583275e-05  -1.1921434e-05  -1.5639647e-05  -8.4251390e-06  -1.8341889e-05  -1.2282414e-05  -1.4769941e-06   2.3098940e-06   1.0074569e-05  -3.5918449e-05  -3.1930933e-05  -2.8854744e-05  -4.9069558e-05  -1.0542818e-04  -2.5935889e-05  -9.1880967e-05  -4.1145850e-05  -2.7575401e-05  -3.9185409e-05  -4.4733811e-05  -9.9682447e-06   4.2243680e-05  -2.3255197e-05  -4.0458181e-05  -3.6963641e-05   9.1236812e-06  -3.6559049e-06   1.6468293e-05  -1.2032189e-05  -4.2858085e-05  -5.9364405e-05  -4.1754943e-05  -8.6173095e-05  -1.2277467e-04  -6.9144166e-05  -7.6356195e-05  -2.3560930e-04  -1.7119970e-04  -1.1755281e-04  -1.1816267e-04  -6.9244055e-05  -1.3248379e-04  -9.5021136e-05  -1.0881568e-04  -1.5409883e-04  -1.5497403e-04  -8.7856811e-05  -3.9857121e-05  -7.1977497e-05  -1.2769320e-04  -1.2871669e-04  -1.0653981e-04  -7.4265125e-05  -9.5559335e-05  -1.5461268e-05  -1.0664199e-04  -2.9418639e-05  -2.7270411e-05  -5.4239453e-05  -2.5642174e-04  -1.1523530e-04  -8.5641250e-05  -5.3457139e-05  -6.9870290e-06  -6.9701684e-05  -1.3954038e-04  -5.4942744e-05  -8.1159220e-06  -1.1761752e-04  -1.2914747e-04  -8.3476124e-05  -1.2249432e-04  -8.1212795e-05  -6.4001112e-05  -1.6580254e-04   5.0672835e-05   3.0940945e-06  -1.1939622e-04  -1.1955215e-04  -9.6228755e-05  -1.0968686e-04  -1.1411866e-04   6.9241601e-05   1.7408412e-05  -2.1696034e-05  -1.0033493e-04  -9.5728904e-05  -1.2410836e-04  -1.5149126e-04  -1.2821382e-04  -7.4347239e-05  -1.0393556e-04  -8.7103294e-05  -1.1860774e-04  -8.8825299e-05  -1.0574958e-04  -3.1064436e-06   5.3785698e-05  -2.3026707e-05  -1.1855596e-04  -1.1331954e-04  -2.1038275e-05  -8.1228585e-06   7.1580963e-05   1.7110147e-05  -2.4986333e-05  -1.1125535e-04  -1.5870736e-04  -7.5970966e-05  -6.5131184e-05  -7.5148017e-05  -7.4741544e-05  -1.3328453e-04  -6.1307876e-05  -5.9001994e-05  -7.9839866e-05  -1.3323749e-04  -1.1949238e-04  -5.5426325e-08  -4.9151501e-05  -1.6036875e-06  -7.3153677e-06   1.4306901e-05  -1.2560878e-04  -8.9058952e-05  -1.3361684e-04  -1.6355003e-04  -1.2079461e-04  -8.5497815e-05  -1.1663901e-04  -9.5152187e-05  -1.8566574e-04  -1.5313672e-04  -1.6070281e-04  -2.2170373e-05  -2.6207875e-07  -9.7533465e-05  -1.6892721e-04  -1.5940991e-04  -5.3466579e-06  -1.0880036e-05   3.9880970e-05  -8.1168040e-05  -1.3100689e-04  -4.5744379e-05  -8.7214913e-05  -6.3451777e-05  -9.1513091e-05  -6.7619500e-05  -6.3376110e-05  -1.9088476e-04  -4.6832071e-05  -3.1896466e-06  -4.0864356e-05  -2.9302282e-05  -5.8043504e-05  -7.7586869e-05  -1.2352030e-04  -6.7950747e-06   1.4812525e-05   2.1265357e-05  -9.2613367e-05  -5.2455874e-05  -9.7109524e-05  -1.1310468e-04  -1.1670146e-04  -4.0636993e-05  -5.4542180e-05  -5.3077494e-05  -8.6414588e-05  -7.6612993e-05  -1.1643836e-04  -2.9007909e-05  -3.0123902e-05  -2.9219139e-05  -7.0287630e-05  -3.4639590e-05   2.2561168e-05  -6.0515062e-06   2.1582218e-05  -7.0961594e-06  -5.6451924e-05   9.8836399e-05   2.9513068e-05   1.4979763e-05   3.3721355e-05  -4.6415430e-05   2.1106862e-06  -1.4411896e-04  -5.2394171e-08   1.0803490e-04  -9.4494268e-05   1.2993735e-05  -2.2868810e-05  -1.9037978e-04  -1.1866247e-04   2.9275366e-05   1.5152354e-04   7.8708630e-05   1.2722633e-04   1.3842790e-04   1.3577381e-04   1.9429874e-04  -2.9337972e-05  -3.3019860e-06   1.1366499e-05  -6.6570315e-05  -3.2271638e-05  -5.9423203e-05  -1.5456238e-04   7.2022742e-05   1.7421242e-05  -1.6267771e-04   8.2291321e-05   1.8773617e-05   4.7771791e-05   3.0696724e-05   5.3715383e-05  -9.3004640e-05  -2.8922330e-04  -3.7246073e-04  -4.5541342e-04  -2.1269044e-04  -3.1347650e-04  -2.5524032e-04  -2.1351856e-04  -2.0337395e-04  -2.6203147e-05  -7.3384557e-05  -2.5764979e-04  -3.0555489e-04  -3.9437662e-04  -1.4579403e-04  -1.4481053e-05   6.8688951e-05   5.2687393e-05  -1.1719600e-05  -2.5793123e-04  -2.3017146e-04  -3.7190034e-04  -3.7347317e-04  -4.1518919e-04  -2.4973841e-04  -4.1543078e-04  -3.1155385e-04  -4.5835402e-04  -3.1198365e-04  -3.3815672e-04  -1.3866896e-04   6.4201103e-05  -3.2561681e-05  -3.4867846e-04  -3.5747210e-04  -1.1271723e-04  -1.0793225e-04   5.2582458e-05  -1.4735573e-05  -1.2003875e-04   2.5067329e-04   1.5355162e-04   1.4037556e-04   2.2521602e-04   1.9319410e-04   8.0403586e-05  -7.8566147e-07  -1.8549520e-06   1.4111591e-04   1.4215443e-04   1.7592316e-04   1.6182994e-04  -1.3300436e-04  -1.0612476e-04  -4.3429864e-06   1.0281242e-04   1.2609369e-04   1.0847027e-04   2.0508714e-04   2.4838996e-04   2.2825324e-04   1.9887139e-04   1.4135144e-04   1.3519501e-04   1.0125761e-04   1.8759270e-04   1.0283002e-04   1.0452753e-04   1.2827691e-04   2.8802533e-05  -2.5563442e-05   1.9005440e-04   9.0354103e-05   5.6426649e-05   4.5434691e-05   3.1181808e-06  -2.0241962e-04  -2.3127921e-04   3.3367430e-04   1.2041913e-03   4.6658990e-04   6.2678895e-04   1.0036365e-03   2.0761626e-04  -2.2581049e-04   3.1953810e-04   3.1101450e-04   3.4180796e-04   3.4139951e-04   5.7651745e-04  -1.1998505e-04  -5.9053638e-04   3.1412667e-04  -1.6020348e-04   1.8771222e-05   3.9110556e-04   3.0226992e-04   4.1378294e-04   4.8373914e-04   9.5502249e-04   3.4655255e-04   6.7771062e-04   3.3981028e-04   5.1936240e-04   5.5889500e-04   4.3019195e-04   1.8377882e-04  -2.5810547e-04   1.1583526e-04   4.6251639e-04   5.1036742e-04   3.2917452e-04   2.3773848e-04  -3.9062468e-05   4.5916605e-04   4.1886440e-04
  -2.9183032e-04  -3.1884978e-04  -1.8439578e-04  -2.8509378e-04  -2.0353235e-04  -1.4980468e-04  -1.6039485e-04  -2.9597644e-05  -9.7687633e-05  -2.3802594e-04  -2.3039697e-04  -2.6264120e-04  -1.1660098e-04  -7.3878316e-05  -5.9563280e-07  -5.9017211e-05  -8.5156722e-05  -2.1566976e-04  -2.0487769e-04  -2.6941685e-04  -3.3779822e-04  -3.6302869e-04  -1.9132975e-04  -2.8299419e-04  -1.3508033e-04  -3.3018597e-04  -1.8655624e-04  -1.9570422e-04  -8.9409794e-05   1.6873201e-06  -1.0934719e-05  -3.2641042e-04  -2.5137009e-04  -6.7022434e-05  -7.2986714e-05   1.1194753e-05   4.8198291e-05   4.9266481e-05  -1.0972499e-04  -7.1920199e-05  -4.4429393e-05  -3.0165428e-05  -7.1884034e-06  -9.5754606e-05   5.8677837e-05   2.3744513e-04   1.1551530e-04  -1.2191553e-04  -1.3110518e-04  -1.3145545e-04  -5.1335072e-05   6.2068291e-05   1.4207323e-04   7.6256939e-05  -7.0651211e-05  -1.1064556e-04  -8.5493281e-05  -2.4131932e-04  -1.7733641e-04   2.5913789e-05  -8.7462047e-05   2.1457044e-04   9.2942429e-05  -1.6352596e-04  -4.8119079e-05   9.8981655e-06   1.6494864e-04   2.3458567e-04   3.3251774e-04  -1.0062981e-04  -1.0994649e-04   2.9118569e-05   9.9634886e-05   2.3727580e-04   5.3620765e-04   2.8765489e-04  -7.2527522e-04  -1.8829975e-03  -5.2504733e-04  -1.0960215e-03  -1.9075554e-03  -4.4450089e-04   3.8324004e-03  -2.6344855e-04  -1.9643684e-04   2.2622868e-04  -1.7621207e-04  -1.0564769e-03   5.7106698e-04   2.0448081e-03   9.0481873e-04   6.4403963e-04   8.6010968e-04  -8.2316683e-04  -9.7427304e-04  -1.1982292e-03  -1.5223693e-03  -1.5983323e-03  -7.5435846e-04  -1.7625007e-03  -1.0846678e-03  -1.6431312e-03  -1.0400799e-03  -1.3317922e-03  -6.4390491e-04   2.0172917e-03  -1.5972676e-04  -1.6325521e-03  -1.0678071e-03  -6.0031849e-04  -2.8661359e-04   9.6515018e-04  -9.9697556e-04  -2.1341862e-03  -2.5577984e-05  -6.6932425e-05  -1.8562869e-05  -3.2222866e-05  -4.4955112e-05  -4.6807152e-07   2.3030152e-05  -2.4005132e-05  -5.4907966e-06   4.4266227e-06  -5.9697569e-07   1.0113187e-05  -1.0153886e-05  -5.8713774e-06   1.8119224e-06   8.3082343e-06   1.8019058e-05  -2.2987802e-05  -1.7912177e-05  -9.9644222e-06  -2.7596162e-05  -7.8767037e-05  -1.1482819e-05  -7.0804052e-05  -3.1997455e-05  -4.4441597e-06  -2.7169222e-05  -3.1336867e-05  -3.2267669e-06   4.1216801e-05  -2.3357973e-05  -1.9236539e-05  -2.0644299e-05   1.3948628e-05   2.2943342e-06   1.5567558e-05  -1.6538086e-05  -4.5208580e-05  -5.7984151e-05  -4.0108440e-05  -8.9404050e-05  -1.2326165e-04  -7.2445817e-05  -7.7978763e-05  -2.5543579e-04  -1.7883740e-04  -1.2202849e-04  -1.2195647e-04  -6.9977243e-05  -1.3352087e-04  -1.0259595e-04  -1.2005934e-04  -1.5740743e-04  -1.5872505e-04  -9.0027923e-05  -3.8569741e-05  -7.3352921e-05  -1.3165438e-04  -1.3510297e-04  -1.0635289e-04  -7.6890776e-05  -9.3900232e-05  -1.9196025e-05  -1.0833834e-04  -3.1219218e-05  -3.0416176e-05  -5.5127708e-05  -2.6766895e-04  -1.2191297e-04  -8.5309851e-05  -5.2642769e-05  -7.9040925e-06  -7.1420593e-05  -1.4349490e-04  -5.6111662e-05  -1.1519093e-05  -1.0778119e-04  -1.1948997e-04  -7.8216135e-05  -1.1326225e-04  -7.5948953e-05  -5.8761098e-05  -1.7214603e-04   5.5180700e-05   8.4053875e-06  -1.1546439e-04  -1.1590119e-04  -8.7057187e-05  -1.1146027e-04  -1.1980337e-04   7.2973402e-05   1.9366294e-05  -2.0441329e-05  -9.4410374e-05  -9.0515931e-05  -1.1539615e-04  -1.4016733e-04  -1.1639990e-04  -6.7538893e-05  -9.3239507e-05  -8.5121746e-05  -1.0664447e-04  -8.3704128e-05  -1.0236844e-04   3.4105773e-07   5.4547739e-05  -2.2099922e-05  -1.0680116e-04  -1.0353499e-04  -1.8110240e-05  -4.9487286e-06   7.4464060e-05   1.7949893e-05  -2.5825648e-05  -1.0009939e-04  -1.4354532e-04  -6.9535580e-05  -5.3453258e-05  -6.7909925e-05  -6.8533880e-05  -1.4159822e-04  -6.7723580e-05  -5.7865484e-05  -7.3569588e-05  -1.3312017e-04  -1.1366215e-04  -6.7011084e-06  -5.6473532e-05  -5.6182553e-06  -8.4693497e-06   1.3592787e-05  -1.1584742e-04  -8.2726562e-05  -1.2278415e-04  -1.4709164e-04  -1.0127687e-04  -7.7045829e-05  -1.0885979e-04  -9.4422026e-05  -1.7316469e-04  -1.4960450e-04  -1.5635090e-04  -2.3105428e-05  -9.6941209e-06  -1.1229612e-04  -1.6017170e-04  -1.5488522e-04  -6.5782641e-06  -1.1069347e-05   3.2984229e-05  -9.5144420e-05  -1.4882165e-04  -1.7102409e-05  -5.3589598e-05  -4.7680331e-05  -6.4405529e-05  -4.8337480e-05  -4.9816325e-05  -1.9195483e-04  -5.1892426e-05   3.2624893e-06  -1.9967420e-05  -4.9840798e-06  -3.3387855e-05  -7.6459329e-05  -1.2618697e-04  -1.1879839e-05   1.7610628e-05   2.7330984e-05  -6.9018838e-05  -2.8346638e-05  -6.8482703e-05  -7.6202718e-05  -8.3977470e-05  -2.3639683e-05  -2.9116859e-05  -4.0901509e-05  -5.5540506e-05  -5.8622328e-05  -9.9094898e-05  -2.2487325e-05  -3.9083259e-05  -3.9548425e-05  -3.3930590e-05  -7.3670441e-06   2.7597404e-05  -9.3013752e-08   1.5418524e-05  -2.1051341e-05  -7.0669810e-05   1.1148263e-04   4.7630122e-05   2.9393851e-05   5.5571024e-05  -3.1158791e-05   1.0757347e-05  -1.6668022e-04  -4.6794230e-06   1.1923811e-04  -7.6026789e-05   3.2464750e-05  -5.7234671e-06  -2.0606609e-04  -1.3424398e-04   2.4186903e-05   1.5431729e-04   8.3262673e-05   1.4576518e-04   1.5597237e-04   1.4876326e-04   2.1033571e-04  -1.2264784e-05  -3.5020275e-07   1.7511134e-05  -6.3176451e-05  -1.8645137e-05  -4.8586486e-05  -1.4339005e-04   7.9007967e-05   1.2379993e-05  -1.8091741e-04   1.0502728e-04   3.5925625e-05   5.1373747e-05   3.1974566e-05   4.6086476e-05  -1.1260744e-04  -3.2346845e-04  -3.7158611e-04  -4.5671288e-04  -2.1034297e-04  -3.0733877e-04  -2.5390493e-04  -2.1302723e-04  -2.2309047e-04  -1.5250984e-05  -6.4529803e-05  -2.6033166e-04  -3.1061311e-04  -3.9594248e-04  -1.4836591e-04  -2.2166622e-05   7.7738802e-05   6.1859222e-05  -1.0819757e-05  -2.5811721e-04  -2.2631747e-04  -3.7316537e-04  -3.7524829e-04  -4.1061853e-04  -2.4926909e-04  -4.0787277e-04  -3.1751405e-04  -4.5684109e-04  -3.1434016e-04  -3.4359909e-04  -1.3258369e-04   6.4246100e-05  -3.7267236e-05  -3.4634935e-04  -3.5552339e-04  -1.1538575e-04  -1.0516832e-04   5.2295932e-05  -1.2205828e-05  -1.1588460e-04   2.6623213e-04   1.7376696e-04   1.5097280e-04   2.4386300e-04   2.0145051e-04   8.5643701e-05   1.8375209e-05   1.4794658e-05   1.4625010e-04   1.5409895e-04   1.8819741e-04   1.6884104e-04  -1.3496014e-04  -1.0303068e-04   2.4454494e-06   1.1419923e-04   1.3441657e-04   1.1311255e-04   2.0786938e-04   2.5271565e-04   2.2792808e-04   2.1538050e-04   1.4315747e-04   1.5509102e-04   1.0969119e-04   1.9063560e-04   1.0947528e-04   1.1693613e-04   1.3882310e-04   4.8987145e-05  -7.6321938e-06   2.0090909e-04   9.6070772e-05   5.7919698e-05   5.1914963e-05   1.6255650e-05  -1.9839181e-04  -2.3706164e-04   3.1937841e-04   1.1604004e-03   4.5403325e-04   6.1113288e-04   9.8473726e-04   1.9901883e-04  -1.9924530e-04   3.2290774e-04   3.0612098e-04   3.2916288e-04   3.2749978e-04   5.5111048e-04  -1.2543416e-04  -5.7352545e-04   3.1786654e-04  -1.6584127e-04   1.7277634e-05   3.7801333e-04   2.7818248e-04   3.8830968e-04   4.5066871e-04   9.0615923e-04   3.1993797e-04   6.2219937e-04   3.1637320e-04   4.7423882e-04   5.3087859e-04   3.9921882e-04   1.6275275e-04  -2.4868284e-04   1.2320995e-04   4.2573837e-04   4.8633885e-04   3.1736395e-04   2.3099234e-04  -3.6962244e-05   4.5092434e-04   4.0893313e-04
