   1.7147151e-06  -1.8996596e-06  -1.7019840e-05   0.0000000e+00  -6.7822304e-06  -1.9239012e-05  -2.2720767e-05  -2.3791955e-05   2.6723674e-05  -1.9305164e-05   0.0000000e+00  -3.0226184e-05  -3.4780849e-05  -1.7088217e-05   2.3020746e-05   1.6653375e-05  -3.2153812e-05   0.0000000e+00  -1.8413710e-05  -3.8022342e-05  -1.1777838e-05  -2.5790208e-05   8.5558126e-06  -3.6508122e-05  -2.5011064e-06  -4.7563560e-05  -3.3297684e-05  -2.3310880e-05  -1.4803452e-07   0.0000000e+00   7.2430618e-05  -3.7143464e-05   0.0000000e+00   0.0000000e+00  -1.9911564e-05   0.0000000e+00   3.4947959e-05   2.9820771e-05   4.2013376e-04   7.1321214e-05   1.0339817e-06   0.0000000e+00  -1.7120230e-05  -8.0566546e-06  -3.8793720e-05  -1.6983549e-05  -1.1840932e-05  -2.8729325e-05   0.0000000e+00  -2.8598399e-05  -1.4934753e-05  -1.5640824e-05   1.3710489e-05  -1.2039271e-05  -1.8582866e-06   0.0000000e+00  -2.6423987e-05  -1.6648401e-05  -4.0569176e-06  -3.5757249e-05  -1.4381702e-05  -6.8167042e-05  -3.8260221e-06  -4.6517432e-05   1.0701882e-06  -6.0891550e-05  -5.3177345e-05   0.0000000e+00  -1.8858581e-04   1.3485005e-05   0.0000000e+00   0.0000000e+00  -1.4984751e-05   0.0000000e+00  -9.9842969e-05  -6.0348543e-05   2.8235561e-05  -4.1163808e-05  -1.5427017e-05   0.0000000e+00   8.5755892e-07   7.5809050e-05  -8.9000401e-05  -2.5847084e-05   4.1401014e-05   7.7333058e-05   0.0000000e+00   1.4874739e-04  -9.4163020e-05   2.8145835e-05   3.2033822e-06  -4.5727866e-06   2.0942821e-05   0.0000000e+00   1.1145293e-04   1.3877649e-04   5.8632441e-05  -8.9011592e-06  -2.3004867e-05   5.7900191e-05   4.0554765e-05   6.0610075e-05   1.1363631e-04   1.7122279e-04   3.0853577e-05   0.0000000e+00   2.0136875e-05   9.0208894e-05   0.0000000e+00   0.0000000e+00   8.1303294e-05   0.0000000e+00   4.5745372e-05  -2.8805409e-05  -1.7728443e-04  -2.8407392e-05   4.2698450e-05   0.0000000e+00   1.3188377e-05   2.1154223e-05   4.6056851e-05   9.5734412e-06   7.4795347e-05   3.1397587e-05   0.0000000e+00  -9.1262229e-07   5.7803972e-05   4.1402960e-05   2.5424826e-05   4.0352775e-05   3.6085972e-05   0.0000000e+00  -6.8622475e-06  -2.1426020e-05   5.4728207e-06   5.5201034e-06   2.1222670e-05   1.4752389e-05  -3.1865892e-05  -2.2824812e-05   4.3075230e-06   8.1804053e-06   3.0619253e-05   0.0000000e+00   1.1180694e-04  -4.3909164e-05   0.0000000e+00   0.0000000e+00   1.8745493e-05   0.0000000e+00   1.0566734e-04   1.0966065e-05  -1.6221056e-04  -1.1422562e-04  -4.9032056e-05   0.0000000e+00  -3.3950491e-05  -6.7146665e-05   1.3500509e-04  -7.3141195e-05  -3.7208346e-05  -5.6664716e-05   0.0000000e+00  -4.4700060e-05   4.3311215e-05   8.6817457e-05   2.2717858e-05  -5.0409836e-05  -1.4548312e-05   0.0000000e+00  -5.6190483e-05  -8.3449568e-05  -1.4594318e-05  -8.7853235e-05  -6.6042829e-05  -1.2942354e-04   1.7977499e-05  -8.4323274e-05  -3.5807065e-05  -5.3904580e-05  -7.6011223e-05   0.0000000e+00   3.6539409e-06  -8.6057940e-05   0.0000000e+00   0.0000000e+00  -5.5864963e-05   0.0000000e+00   5.8672487e-05   1.2432687e-04  -3.7690212e-05  -2.1376484e-05   3.2205913e-05   0.0000000e+00   3.8923951e-05   3.8103826e-06  -3.4460021e-05   5.9799427e-06   2.1989249e-06   3.1176547e-05   0.0000000e+00   3.4926223e-06  -2.1401715e-05  -2.7538740e-05   9.8719045e-06  -4.5676959e-05  -1.4493735e-05   0.0000000e+00  -9.3328570e-06  -9.2379087e-06   1.9537241e-06  -2.3996545e-05   2.9228270e-05   2.2205477e-06   8.2059273e-06   8.8547058e-06   9.6639891e-06  -1.7665931e-05   2.8599211e-06   0.0000000e+00  -5.0877125e-05   1.9465649e-05   0.0000000e+00   0.0000000e+00   5.1963234e-07   0.0000000e+00  -6.7675159e-05   2.5483793e-05  -4.1500932e-04  -7.6020750e-05  -4.8486469e-05   0.0000000e+00  -5.9020365e-05  -1.1515826e-04   4.7799671e-05   2.4049729e-05  -5.3348440e-05  -9.5529345e-05   0.0000000e+00  -1.6993092e-04   6.0327816e-05   4.9733737e-05   1.1593537e-05  -2.3947290e-05  -4.1437949e-05   0.0000000e+00  -1.9088076e-04  -2.4887625e-04  -1.3557862e-04  -1.5563257e-04  -5.6382020e-05  -1.2560939e-04  -4.2358185e-05  -1.9088287e-04  -1.2897153e-04  -1.1656422e-04  -9.0324278e-05   0.0000000e+00  -6.5461184e-05  -2.0057824e-04   0.0000000e+00   0.0000000e+00  -8.9691846e-05   0.0000000e+00   1.2059258e-06  -1.1826866e-05  -6.9385629e-05  -8.8115391e-06  -6.6648034e-05   0.0000000e+00   4.9114180e-06  -3.8059879e-05   1.8702286e-05  -6.0892112e-05  -3.6236781e-06  -3.4922749e-05   0.0000000e+00  -5.7443983e-05  -3.9469628e-05  -8.1588935e-05   1.0337480e-04   2.0336577e-04   8.8648651e-05   0.0000000e+00  -6.0736079e-05  -9.6425154e-05  -8.3533714e-05   1.3938355e-05  -5.7116970e-05   8.7203665e-05   1.0683077e-05  -1.4308455e-05   6.0797275e-07   4.5738571e-05   2.6144897e-05   0.0000000e+00   2.6131800e-04  -1.7310521e-04   0.0000000e+00   0.0000000e+00   3.6516679e-06   0.0000000e+00   1.0744399e-04   9.8248930e-05   1.0524075e-04   1.6628273e-04   9.9666324e-05   0.0000000e+00   2.1417775e-05   2.2337566e-05   3.0876037e-04   1.6543344e-04   4.2165370e-04  -2.6617747e-05   0.0000000e+00   4.3309954e-05   2.4776342e-04   2.9467351e-04   3.1599260e-04   4.9786424e-04   2.3325356e-04   0.0000000e+00  -4.0460586e-05   2.7283549e-05   7.3937445e-05  -5.8959099e-05  -7.1538285e-05   8.4192446e-05   5.1474043e-05   1.0616341e-04   5.0204767e-05   1.7218173e-05   7.9965028e-05   0.0000000e+00   4.8680785e-04   8.0053946e-05   0.0000000e+00   0.0000000e+00  -1.9956014e-06   0.0000000e+00   6.5056573e-04  -1.5273829e-04  -5.1215992e-04  -3.8821331e-04  -5.5362551e-05   0.0000000e+00   3.1312422e-05  -5.7809433e-05  -2.7403624e-04  -5.1575404e-05  -1.2465709e-04  -4.5325470e-05   0.0000000e+00  -1.1917037e-04  -2.0062243e-06  -8.0412325e-05  -8.4199253e-05  -6.6469213e-05  -4.0726798e-05   0.0000000e+00  -2.7787937e-05  -5.9999247e-05  -3.8794957e-05  -1.0115458e-04  -7.8153916e-07  -2.1341868e-04  -3.4920112e-05  -6.8496490e-05  -7.2143494e-05  -8.2522204e-05  -3.8945582e-05   0.0000000e+00  -3.1740577e-04  -3.4235064e-05   0.0000000e+00   0.0000000e+00  -2.4987141e-05   0.0000000e+00  -2.2111724e-04  -1.4333136e-04   2.4481718e-04   1.8771004e-04  -1.3698277e-04   0.0000000e+00  -3.1676092e-04   3.1218131e-05  -1.7374402e-04   6.7746712e-05   3.1416609e-05   1.9532726e-04   0.0000000e+00   2.4770889e-04   6.6517893e-05   4.2042842e-05   5.5257025e-05  -1.9419275e-04  -1.1323956e-04   0.0000000e+00   2.7109933e-04   4.1793668e-04   2.2040675e-04   2.3267301e-05   6.1886311e-05   1.1013245e-04   1.7118115e-05   3.0275053e-04   1.0711202e-04   1.4125768e-04   1.2546674e-04   0.0000000e+00   2.3277722e-05   4.7458613e-04   0.0000000e+00   0.0000000e+00  -3.3775994e-05   0.0000000e+00  -1.7811292e-04  -1.1814416e-04
  -2.8868348e-07  -4.6630303e-06  -1.8043755e-05   0.0000000e+00  -9.7107377e-06  -2.6610793e-05  -1.3831536e-05  -2.1009129e-05   3.6347474e-05  -2.2911732e-05   0.0000000e+00  -3.7283262e-05  -3.1323149e-05  -1.0547020e-05   3.2447437e-05   2.5032931e-05  -3.3384767e-05   0.0000000e+00  -2.6573683e-05  -5.0861296e-05  -1.8445823e-05  -3.1701806e-05   6.6836195e-06  -4.0390861e-05  -2.9764806e-06  -5.7779553e-05  -3.9980926e-05  -2.8148731e-05  -4.8352984e-07   0.0000000e+00   9.0607242e-05  -4.8738706e-05   0.0000000e+00   0.0000000e+00  -2.4718033e-05   0.0000000e+00   4.7381788e-05   3.3089828e-05   4.0793976e-04   6.7177959e-05   1.6102338e-05   0.0000000e+00  -1.0763157e-05  -4.1635034e-06  -3.3716209e-05  -9.2023237e-06  -1.1181899e-05  -2.8245905e-05   0.0000000e+00  -3.1279945e-05  -1.0047888e-05  -1.5074697e-05   1.1337797e-05  -1.0105802e-05   1.3758895e-06   0.0000000e+00  -3.2461616e-05  -2.1090512e-05  -5.8494889e-06  -2.9747166e-05  -1.3206166e-05  -6.2094307e-05  -8.9886386e-07  -5.0210733e-05   7.1772314e-06  -6.1896688e-05  -4.7317852e-05   0.0000000e+00  -1.9283948e-04   1.2708750e-05   0.0000000e+00   0.0000000e+00  -4.7938397e-06   0.0000000e+00  -1.0558705e-04  -6.9998765e-05   6.0183971e-05  -1.2772556e-05  -7.6449148e-06   0.0000000e+00   9.2640694e-06   8.5397627e-05  -8.7736975e-05  -3.0629240e-05   4.2229512e-05   9.4534717e-05   0.0000000e+00   1.5468105e-04  -1.0704130e-04   2.3990922e-05  -6.2678992e-06  -8.5904685e-06   2.5428739e-05   0.0000000e+00   1.1423591e-04   1.3408518e-04   5.8158340e-05   1.4521953e-05  -1.5104632e-05   8.3348799e-05   4.7026191e-05   5.7008651e-05   1.2391601e-04   1.8907304e-04   3.8239289e-05   0.0000000e+00   5.5006203e-05   7.3622330e-05   0.0000000e+00   0.0000000e+00   9.9694775e-05   0.0000000e+00   7.4788008e-05  -1.3138876e-05  -2.1146590e-04  -4.1017984e-05   4.2223748e-05   0.0000000e+00   7.5624718e-06   1.9042003e-05   4.6961357e-05   1.4451749e-05   7.0812115e-05   3.6064776e-05   0.0000000e+00  -6.0379729e-06   6.4790158e-05   4.2846880e-05   2.3572288e-05   3.5968191e-05   3.4831955e-05   0.0000000e+00  -1.0527101e-05  -2.7626375e-05   1.1647934e-06   1.9446915e-06   2.1732069e-05   1.7791127e-05  -4.0756660e-05  -2.4347097e-05   4.6986808e-06   9.6928782e-06   3.3860972e-05   0.0000000e+00   1.1553520e-04  -5.0834208e-05   0.0000000e+00   0.0000000e+00   2.0508146e-05   0.0000000e+00   1.0788287e-04   1.5122093e-05  -2.4200099e-04  -1.5087414e-04  -5.7307047e-05   0.0000000e+00  -4.3091713e-05  -7.7424801e-05   1.3756282e-04  -7.7797743e-05  -4.5366891e-05  -6.7698168e-05   0.0000000e+00  -6.0987353e-05   4.5013690e-05   8.9448274e-05   1.7319555e-05  -6.3855892e-05  -2.1109571e-05   0.0000000e+00  -6.6785085e-05  -9.7998572e-05  -2.3243704e-05  -1.0248985e-04  -7.6197379e-05  -1.4854152e-04   1.0128586e-05  -1.0608302e-04  -5.0347255e-05  -6.8446924e-05  -8.4997766e-05   0.0000000e+00  -1.1500466e-05  -1.0074967e-04   0.0000000e+00   0.0000000e+00  -6.1882826e-05   0.0000000e+00   5.1062367e-05   1.1695543e-04  -6.5503447e-05  -2.1539032e-05   3.4870220e-05   0.0000000e+00   3.6905643e-05   3.8347271e-06  -3.4199146e-05   1.5389777e-06   2.7272123e-07   3.5761399e-05   0.0000000e+00   9.1725664e-06  -2.6745656e-05  -3.1154824e-05   5.8389472e-06  -5.6348406e-05  -1.8053498e-05   0.0000000e+00  -8.9690005e-06  -5.5692788e-06   5.7125475e-06  -2.7944462e-05   2.9684233e-05   4.1799741e-06   5.9726667e-06   1.7903919e-05   1.4890528e-05  -1.7189426e-05   3.2334312e-06   0.0000000e+00  -5.5258662e-05   2.5389480e-05   0.0000000e+00   0.0000000e+00  -2.3262672e-08   0.0000000e+00  -7.0138177e-05   3.4698442e-05  -5.2395174e-04  -9.2436994e-05  -5.1581874e-05   0.0000000e+00  -6.0175848e-05  -1.3413544e-04   4.4371962e-05   3.1100528e-05  -6.0979914e-05  -1.0891602e-04   0.0000000e+00  -1.9971225e-04   6.3840764e-05   5.3180484e-05   1.1326564e-05  -2.6623081e-05  -4.9403708e-05   0.0000000e+00  -2.2104934e-04  -2.8893199e-04  -1.6103293e-04  -1.7492140e-04  -6.5523817e-05  -1.4720033e-04  -5.0604165e-05  -2.1941919e-04  -1.5302270e-04  -1.3599643e-04  -1.0393245e-04   0.0000000e+00  -7.8778412e-05  -2.2795857e-04   0.0000000e+00   0.0000000e+00  -9.9265356e-05   0.0000000e+00   1.8349743e-06  -1.9498472e-05  -7.3176252e-05   4.5620274e-06  -7.2367644e-05   0.0000000e+00   1.7126402e-05  -3.7421630e-05   2.8473941e-05  -5.1570633e-05  -2.0509808e-06  -2.7943658e-05   0.0000000e+00  -5.6694970e-05  -5.7261962e-05  -7.9094142e-05   1.2534231e-04   2.3896252e-04   1.0936542e-04   0.0000000e+00  -5.4911532e-05  -8.7440739e-05  -7.9471269e-05   3.2394599e-05  -6.5096806e-05   1.1810658e-04   1.2126824e-05  -3.5996450e-06   9.1881688e-06   6.1802473e-05   3.8122644e-05   0.0000000e+00   3.2690096e-04  -1.8905954e-04   0.0000000e+00   0.0000000e+00   9.2155764e-06   0.0000000e+00   1.3453130e-04   1.1222010e-04   8.2307312e-05   1.6038896e-04   1.0110641e-04   0.0000000e+00   1.2187948e-05   1.7391199e-05   3.2206377e-04   1.7582721e-04   4.6075621e-04  -4.4218890e-05   0.0000000e+00   3.1757799e-05   2.3389635e-04   3.0703428e-04   3.5001133e-04   5.3986237e-04   2.4675191e-04   0.0000000e+00  -5.4200235e-05   8.1574580e-06   6.6182679e-05  -8.3024267e-05  -9.7933855e-05   6.2532379e-05   4.8962801e-05   9.2511108e-05   4.4233339e-05   7.2585183e-06   7.3714982e-05   0.0000000e+00   5.2144545e-04   7.0809817e-05   0.0000000e+00   0.0000000e+00  -1.1330844e-05   0.0000000e+00   7.1357796e-04  -1.7452276e-04  -5.9543932e-04  -4.5563843e-04  -6.0818469e-05   0.0000000e+00   3.9033535e-05  -6.6274512e-05  -3.1506267e-04  -3.7471943e-05  -1.5594089e-04  -4.2080309e-05   0.0000000e+00  -1.3722509e-04  -1.2011168e-05  -9.8262136e-05  -1.0496175e-04  -9.1046795e-05  -5.3775486e-05   0.0000000e+00  -3.7740501e-05  -7.1376782e-05  -5.0022343e-05  -1.1856488e-04  -2.0780666e-06  -2.3553184e-04  -3.8385239e-05  -7.6032148e-05  -7.9696473e-05  -9.2202418e-05  -3.6952609e-05   0.0000000e+00  -3.5994872e-04  -3.6653847e-05   0.0000000e+00   0.0000000e+00  -2.7872003e-05   0.0000000e+00  -2.6099888e-04  -1.5387216e-04   2.3797129e-04   1.8476009e-04  -1.3586102e-04   0.0000000e+00  -3.2619814e-04   4.4414678e-05  -1.9562501e-04   6.7757942e-05   3.6705721e-05   1.9829841e-04   0.0000000e+00   2.6530043e-04   5.7192095e-05   3.9382881e-05   5.8263873e-05  -1.9967177e-04  -1.1923561e-04   0.0000000e+00   2.8774271e-04   4.4625399e-04   2.4662639e-04   3.0034011e-05   7.5696623e-05   1.2165340e-04   1.9623846e-05   3.1968312e-04   1.1953239e-04   1.5162688e-04   1.4388775e-04   0.0000000e+00   4.4176571e-05   5.1056242e-04   0.0000000e+00   0.0000000e+00  -2.1170736e-05   0.0000000e+00  -1.8159101e-04  -1.3718297e-04
  -3.0449132e-06  -8.0726586e-06  -1.8865263e-05   0.0000000e+00  -1.3329212e-05  -3.4667183e-05  -2.8149956e-06  -1.6964983e-05   4.6838243e-05  -2.6845627e-05   0.0000000e+00  -4.4443727e-05  -2.6104125e-05  -2.3891544e-06   4.2942911e-05   3.4244015e-05  -3.3623873e-05   0.0000000e+00  -3.5672678e-05  -6.4868405e-05  -2.5905825e-05  -3.8145426e-05   4.0865255e-06  -4.4258334e-05  -3.6251223e-06  -6.8296136e-05  -4.6611452e-05  -3.3090110e-05  -1.1408711e-06   0.0000000e+00   1.0923680e-04  -6.0875356e-05   0.0000000e+00   0.0000000e+00  -2.9931596e-05   0.0000000e+00   6.0410681e-05   3.5641711e-05   3.6762268e-04   6.0328841e-05   3.2527075e-05   0.0000000e+00  -3.0370145e-06   8.8586792e-07  -2.8098950e-05   4.6742440e-07  -1.1836715e-05  -2.7165914e-05   0.0000000e+00  -3.3844615e-05  -6.1814160e-06  -1.4424293e-05   7.3252540e-06  -7.3482105e-06   5.2089038e-06   0.0000000e+00  -3.8236629e-05  -2.5565651e-05  -7.1762467e-06  -2.0637986e-05  -1.1547240e-05  -4.9929453e-05   2.1121616e-06  -5.3315895e-05   1.4358011e-05  -6.1087221e-05  -3.8925023e-05   0.0000000e+00  -1.9149048e-04   1.0984063e-05   0.0000000e+00   0.0000000e+00   7.9261351e-06   0.0000000e+00  -1.0938603e-04  -8.0287630e-05   1.0087334e-04   2.2121016e-05   7.1345797e-07   0.0000000e+00   1.8416133e-05   9.2081205e-05  -8.3696868e-05  -3.5888465e-05   4.0014682e-05   1.1142690e-04   0.0000000e+00   1.5449636e-04  -1.1847162e-04   1.7885935e-05  -1.8291114e-05  -1.3991703e-05   2.7507451e-05   0.0000000e+00   1.1349089e-04   1.2425769e-04   5.4701154e-05   4.0058294e-05  -6.3970571e-06   1.0781623e-04   5.3147920e-05   5.1628517e-05   1.3256206e-04   2.0476076e-04   4.4818523e-05   0.0000000e+00   9.0253547e-05   5.3694035e-05   0.0000000e+00   0.0000000e+00   1.1817005e-04   0.0000000e+00   1.0362690e-04   9.5226181e-06  -2.4157604e-04  -5.5000659e-05   4.0343179e-05   0.0000000e+00   6.9817927e-07   1.6110650e-05   4.6922164e-05   1.9212541e-05   6.4189411e-05   4.0311521e-05   0.0000000e+00  -1.1841319e-05   7.0799601e-05   4.2875867e-05   2.0353192e-05   3.0658502e-05   3.2424873e-05   0.0000000e+00  -1.4679240e-05  -3.4135493e-05  -4.0822568e-06  -2.4176013e-06   2.1644971e-05   2.0984130e-05  -5.0191675e-05  -2.5874161e-05   4.8413962e-06   1.0850610e-05   3.6047960e-05   0.0000000e+00   1.1693796e-04  -5.7264555e-05   0.0000000e+00   0.0000000e+00   2.1487624e-05   0.0000000e+00   1.0689387e-04   1.9610352e-05  -3.1914599e-04  -1.8855810e-04  -6.4674215e-05   0.0000000e+00  -5.2122334e-05  -8.7099553e-05   1.3690226e-04  -8.0403882e-05  -5.4584953e-05  -7.8173217e-05   0.0000000e+00  -7.8242412e-05   4.7460843e-05   8.8959393e-05   8.6358079e-06  -7.9294710e-05  -2.8422689e-05   0.0000000e+00  -7.7629305e-05  -1.1256379e-04  -3.3409667e-05  -1.1725457e-04  -8.5167885e-05  -1.6707429e-04   1.2770353e-06  -1.2829819e-04  -6.6076317e-05  -8.3485620e-05  -9.2884688e-05   0.0000000e+00  -2.9232726e-05  -1.1446595e-04   0.0000000e+00   0.0000000e+00  -6.6868783e-05   0.0000000e+00   3.7920516e-05   1.0620508e-04  -9.4454520e-05  -1.9049067e-05   3.6814880e-05   0.0000000e+00   3.3374074e-05   3.6634688e-06  -3.3430434e-05  -3.4153264e-06  -2.3340336e-06   3.9497850e-05   0.0000000e+00   1.5771882e-05  -3.2139726e-05  -3.4490330e-05   6.2619274e-07  -6.5824440e-05  -2.1415145e-05   0.0000000e+00  -7.7697711e-06  -2.3379666e-07   1.0300149e-05  -3.0355363e-05   2.9019057e-05   7.3196277e-06   3.2386481e-06   2.8632814e-05   2.0934785e-05  -1.5305544e-05   4.0525201e-06   0.0000000e+00  -5.7871467e-05   3.2327807e-05   0.0000000e+00   0.0000000e+00   1.6356049e-07   0.0000000e+00  -6.8976248e-05   4.3512622e-05  -6.3445055e-04  -1.1040224e-04  -5.4098349e-05   0.0000000e+00  -5.9860968e-05  -1.5238808e-04   3.9437076e-05   3.8748386e-05  -6.6736198e-05  -1.2131837e-04   0.0000000e+00  -2.2898068e-04   6.6159652e-05   5.6062927e-05   1.1829147e-05  -2.7729965e-05  -5.6710862e-05   0.0000000e+00  -2.4968918e-04  -3.2701924e-04  -1.8619840e-04  -1.9284738e-04  -7.4441713e-05  -1.6847003e-04  -5.8882539e-05  -2.4642521e-04  -1.7720517e-04  -1.5494496e-04  -1.1682765e-04   0.0000000e+00  -9.0989386e-05  -2.5350204e-04   0.0000000e+00   0.0000000e+00  -1.0804701e-04   0.0000000e+00   3.7559832e-06  -3.0110804e-05  -7.4819931e-05   1.9828159e-05  -7.6430700e-05   0.0000000e+00   3.1297068e-05  -3.5250531e-05   4.2298531e-05  -3.8165231e-05   2.6316627e-06  -1.8586913e-05   0.0000000e+00  -5.3191565e-05  -7.4818184e-05  -7.0804147e-05   1.4856268e-04   2.7445502e-04   1.3052603e-04   0.0000000e+00  -4.6033346e-05  -7.3425494e-05  -7.2343580e-05   5.3388904e-05  -7.2436358e-05   1.5186668e-04   1.3104400e-05   9.3603829e-06   1.9153620e-05   7.9105976e-05   5.2581424e-05   0.0000000e+00   4.0083983e-04  -2.0186066e-04   0.0000000e+00   0.0000000e+00   1.5508641e-05   0.0000000e+00   1.6418397e-04   1.2685349e-04   5.8211203e-05   1.4020066e-04   9.8285561e-05   0.0000000e+00  -1.6869052e-06   9.0876655e-06   3.2880446e-04   1.8279924e-04   4.8986763e-04  -6.3511603e-05   0.0000000e+00   1.5033916e-05   2.0973832e-04   3.1295031e-04   3.7702388e-04   5.6794583e-04   2.5341849e-04   0.0000000e+00  -7.0876227e-05  -1.9112831e-05   5.1414333e-05  -1.1186516e-04  -1.2897798e-04   3.1020441e-05   4.1655425e-05   6.9980865e-05   3.3101191e-05  -6.8856668e-06   6.1586799e-05   0.0000000e+00   5.4026223e-04   5.2989039e-05   0.0000000e+00   0.0000000e+00  -2.4118369e-05   0.0000000e+00   7.6315213e-04  -1.9370892e-04  -6.6763603e-04  -5.1764102e-04  -6.7080549e-05   0.0000000e+00   4.4157316e-05  -7.4543324e-05  -3.5180931e-04  -1.9386971e-05  -1.8818214e-04  -3.7444885e-05   0.0000000e+00  -1.5283059e-04  -2.2897423e-05  -1.1490809e-04  -1.2558664e-04  -1.1803453e-04  -6.7691049e-05   0.0000000e+00  -4.7252885e-05  -8.1183256e-05  -6.1257578e-05  -1.3593278e-04  -4.3742164e-06  -2.5420572e-04  -4.1966150e-05  -8.1457104e-05  -8.6045767e-05  -1.0038524e-04  -3.4713591e-05   0.0000000e+00  -3.9953018e-04  -3.7150643e-05   0.0000000e+00   0.0000000e+00  -3.0708977e-05   0.0000000e+00  -2.9848791e-04  -1.6048649e-04   2.2390172e-04   1.7637478e-04  -1.2833162e-04   0.0000000e+00  -3.2367252e-04   6.0677090e-05  -2.1469360e-04   6.5151446e-05   4.3934610e-05   1.9698265e-04   0.0000000e+00   2.7863650e-04   4.4833226e-05   3.5527024e-05   6.0447962e-05  -1.9886264e-04  -1.2138985e-04   0.0000000e+00   2.9838881e-04   4.6710773e-04   2.7083968e-04   3.9131596e-05   9.0905825e-05   1.3503328e-04   2.3155050e-05   3.3102183e-04   1.3188439e-04   1.6047225e-04   1.6299658e-04   0.0000000e+00   6.7474944e-05   5.3930330e-04   0.0000000e+00   0.0000000e+00  -3.6548105e-06   0.0000000e+00  -1.7968454e-04  -1.5325877e-04
  -6.9146679e-06  -1.2243506e-05  -1.9557992e-05   0.0000000e+00  -1.7643152e-05  -4.3238574e-05   9.8634935e-06  -1.1781234e-05   5.7879195e-05  -3.1117257e-05   0.0000000e+00  -5.1584524e-05  -1.9282659e-05   7.0461720e-06   5.4284884e-05   4.4000776e-05  -3.2893812e-05   0.0000000e+00  -4.5533971e-05  -7.9772138e-05  -3.3982082e-05  -4.5167888e-05   8.2185963e-07  -4.8323156e-05  -4.4852090e-06  -7.8944843e-05  -5.3066386e-05  -3.8098170e-05  -2.2260218e-06   0.0000000e+00   1.2768714e-04  -7.3259758e-05   0.0000000e+00   0.0000000e+00  -3.5487202e-05   0.0000000e+00   7.3598696e-05   3.7479466e-05   3.0070000e-04   5.1421341e-05   4.9044643e-05   0.0000000e+00   5.3447040e-06   6.7434783e-06  -2.2715501e-05   1.1485603e-05  -1.4102962e-05  -2.5778267e-05   0.0000000e+00  -3.6477018e-05  -4.3358771e-06  -1.3875482e-05   1.9263461e-06  -3.9829791e-06   9.3545928e-06   0.0000000e+00  -4.3606174e-05  -2.9985008e-05  -7.9378327e-06  -9.1564211e-06  -9.7283437e-06  -3.2076145e-05   4.9317539e-06  -5.5987993e-05   2.2288030e-05  -5.8810347e-05  -2.8924514e-05   0.0000000e+00  -1.8569490e-04   8.1745064e-06   0.0000000e+00   0.0000000e+00   2.2322935e-05   0.0000000e+00  -1.1183648e-04  -9.1214259e-05   1.4930424e-04   6.1304726e-05   8.6603753e-06   0.0000000e+00   2.7570422e-05   9.5066385e-05  -7.8046651e-05  -4.1518227e-05   3.4371536e-05   1.2727532e-04   0.0000000e+00   1.4803353e-04  -1.2848137e-04   9.8315516e-06  -3.2502296e-05  -2.0925036e-05   2.6450953e-05   0.0000000e+00   1.0974602e-04   1.1018681e-04   4.8195458e-05   6.5343207e-05   2.1480749e-06   1.2904113e-04   5.8633992e-05   4.5144067e-05   1.3951904e-04   2.1803537e-04   5.0107001e-05   0.0000000e+00   1.2250024e-04   3.2427313e-05   0.0000000e+00   0.0000000e+00   1.3583198e-04   0.0000000e+00   1.2988308e-04   3.8754447e-05  -2.6635498e-04  -6.9780508e-05   3.7206569e-05   0.0000000e+00  -7.1573600e-06   1.2592680e-05   4.6107000e-05   2.3558405e-05   5.5521079e-05   4.3998765e-05   0.0000000e+00  -1.8065201e-05   7.5650708e-05   4.1584813e-05   1.5907041e-05   2.4888528e-05   2.9140071e-05   0.0000000e+00  -1.9192334e-05  -4.0790554e-05  -1.0055661e-05  -7.4679741e-06   2.1013733e-05   2.4190363e-05  -5.9950501e-05  -2.7566675e-05   4.6706534e-06   1.1468993e-05   3.6901563e-05   0.0000000e+00   1.1623673e-04  -6.2998183e-05   0.0000000e+00   0.0000000e+00   2.1503373e-05   0.0000000e+00   1.0283214e-04   2.4125784e-05  -3.8939673e-04  -2.2573072e-04  -7.0768542e-05   0.0000000e+00  -6.0665490e-05  -9.5884596e-05   1.3357828e-04  -8.1045498e-05  -6.4609468e-05  -8.7728678e-05   0.0000000e+00  -9.5791675e-05   5.1083487e-05   8.5506725e-05  -3.1990279e-06  -9.6425421e-05  -3.6239391e-05   0.0000000e+00  -8.8423137e-05  -1.2679118e-04  -4.4853561e-05  -1.3180595e-04  -9.2620778e-05  -1.8468270e-04  -7.9965842e-06  -1.5011617e-04  -8.2445742e-05  -9.8496256e-05  -9.9628382e-05   0.0000000e+00  -4.9239062e-05  -1.2672229e-04   0.0000000e+00   0.0000000e+00  -7.0649652e-05   0.0000000e+00   1.9514984e-05   9.3442291e-05  -1.2267981e-04  -1.3610024e-05   3.8094041e-05   0.0000000e+00   2.8788270e-05   3.3847462e-06  -3.2550570e-05  -8.5876736e-06  -5.6939139e-06   4.2207106e-05   0.0000000e+00   2.3102811e-05  -3.7412992e-05  -3.7645990e-05  -5.7174102e-06  -7.3557784e-05  -2.4390986e-05   0.0000000e+00  -5.6278537e-06   6.7966953e-06   1.5683926e-05  -3.0788063e-05   2.7351894e-05   1.1742721e-05   2.0852766e-07   4.0799271e-05   2.7694471e-05  -1.1924068e-05   5.4428445e-06   0.0000000e+00  -5.8698947e-05   4.0302606e-05   0.0000000e+00   0.0000000e+00   1.3427704e-06   0.0000000e+00  -6.4198753e-05   5.1314145e-05  -7.4177947e-04  -1.2936924e-04  -5.6162194e-05   0.0000000e+00  -5.8419264e-05  -1.6945906e-04   3.3495971e-05   4.6860297e-05  -6.9962792e-05  -1.3244935e-04   0.0000000e+00  -2.5699485e-04   6.7428525e-05   5.8621595e-05   1.3602446e-05  -2.6810155e-05  -6.2881587e-05   0.0000000e+00  -2.7607153e-04  -3.6204091e-04  -2.1040601e-04  -2.0908730e-04  -8.2949387e-05  -1.8879194e-04  -6.7001642e-05  -2.7128130e-04  -2.0095648e-04  -1.7297464e-04  -1.2874681e-04   0.0000000e+00  -1.0132945e-04  -2.7676837e-04   0.0000000e+00   0.0000000e+00  -1.1604374e-04   0.0000000e+00   7.3349960e-06  -4.3695951e-05  -7.4142229e-05   3.6363641e-05  -7.8503644e-05   0.0000000e+00   4.6997205e-05  -3.1548622e-05   6.0736084e-05  -2.1012049e-05   1.0776856e-05  -7.1341827e-06   0.0000000e+00  -4.6907131e-05  -9.0941437e-05  -5.6385818e-05   1.7245862e-04   3.0897965e-04   1.5138203e-04   0.0000000e+00  -3.4555712e-05  -5.5126991e-05  -6.2784724e-05   7.6094029e-05  -7.9021433e-05   1.8758624e-04   1.3531787e-05   2.4079243e-05   3.0136753e-05   9.7123601e-05   6.9456790e-05   0.0000000e+00   4.8281341e-04  -2.1129147e-04   0.0000000e+00   0.0000000e+00   2.2363720e-05   0.0000000e+00   1.9617533e-04   1.4249690e-04   3.4713505e-05   1.0391569e-04   9.0775868e-05   0.0000000e+00  -2.0856145e-05  -2.9541208e-06   3.2908238e-04   1.8593874e-04   5.0737381e-04  -8.4187597e-05   0.0000000e+00  -7.0686169e-06   1.7626226e-04   3.1284067e-04   3.9575863e-04   5.8051524e-04   2.5279924e-04   0.0000000e+00  -9.0684622e-05  -5.4590793e-05   2.9160976e-05  -1.4575196e-04  -1.6438194e-04  -1.0281790e-05   2.8854586e-05   3.8640587e-05   1.6530938e-05  -2.5348206e-05   4.3607459e-05   0.0000000e+00   5.4178791e-04   2.6550518e-05   0.0000000e+00   0.0000000e+00  -4.0693189e-05   0.0000000e+00   7.9813121e-04  -2.1125544e-04  -7.2553691e-04  -5.7183792e-04  -7.4289111e-05   0.0000000e+00   4.6074739e-05  -8.2441576e-05  -3.8316285e-04   1.4958680e-06  -2.2016369e-04  -3.2090965e-05   0.0000000e+00  -1.6529493e-04  -3.4054311e-05  -1.2948765e-04  -1.4502947e-04  -1.4625893e-04  -8.1885068e-05   0.0000000e+00  -5.5606072e-05  -8.8491861e-05  -7.1771434e-05  -1.5268922e-04  -7.7170907e-06  -2.6925943e-04  -4.5662812e-05  -8.4365177e-05  -9.1063322e-05  -1.0685188e-04  -3.2875827e-05   0.0000000e+00  -4.3582508e-04  -3.5410910e-05   0.0000000e+00   0.0000000e+00  -3.3405034e-05   0.0000000e+00  -3.3204958e-04  -1.6300386e-04   2.0437113e-04   1.6385541e-04  -1.1467200e-04   0.0000000e+00  -3.0924786e-04   7.9584998e-05  -2.3069663e-04   6.0036343e-05   5.3119741e-05   1.9217796e-04   0.0000000e+00   2.8749425e-04   3.0057590e-05   3.0798384e-05   6.1926109e-05  -1.9180539e-04  -1.1954767e-04   0.0000000e+00   3.0307956e-04   4.8077013e-04   2.9264584e-04   5.0667350e-05   1.0735357e-04   1.5085629e-04   2.7871740e-05   3.3711668e-04   1.4418645e-04   1.6787576e-04   1.8270183e-04   0.0000000e+00   9.2417684e-05   5.6116263e-04   0.0000000e+00   0.0000000e+00   1.8369131e-05   0.0000000e+00  -1.7289296e-04  -1.6564187e-04
  -1.2259771e-05  -1.7286242e-05  -2.0200521e-05   0.0000000e+00  -2.2620923e-05  -5.2143407e-05   2.3679208e-05  -5.6065195e-06   6.9097054e-05  -3.5710497e-05   0.0000000e+00  -5.8602365e-05  -1.1069470e-05   1.7372882e-05   6.6216464e-05   5.4006041e-05  -3.1255865e-05   0.0000000e+00  -5.5953657e-05  -9.5261722e-05  -4.2476152e-05  -5.2805569e-05  -3.0306442e-06  -5.2806240e-05  -5.5861169e-06  -8.9549902e-05  -5.9244164e-05  -4.3149078e-05  -3.8388779e-06   0.0000000e+00   1.4530855e-04  -8.5617028e-05   0.0000000e+00   0.0000000e+00  -4.1300681e-05   0.0000000e+00   8.6521413e-05   3.8666259e-05   2.1083930e-04   4.1186654e-05   6.4323930e-05   0.0000000e+00   1.3569392e-05   1.2962159e-05  -1.8316994e-05   2.3160564e-05  -1.8068283e-05  -2.4418672e-05   0.0000000e+00  -3.9391034e-05  -5.4339228e-06  -1.3608286e-05  -4.4134295e-06  -2.3916334e-07   1.3482078e-05   0.0000000e+00  -4.8495212e-05  -3.4288885e-05  -8.1138428e-06   3.6870261e-06  -8.1394226e-06  -9.4569884e-06   7.3304338e-06  -5.8427033e-05   3.0591179e-05  -5.5525135e-05  -1.8444176e-05   0.0000000e+00  -1.7696072e-04   4.1623015e-06   0.0000000e+00   0.0000000e+00   3.7346706e-05   0.0000000e+00  -1.1366842e-04  -1.0273449e-04   2.0376338e-04   1.0204118e-04   1.5190271e-05   0.0000000e+00   3.5931313e-05   9.3754385e-05  -7.2233830e-05  -4.7343387e-05   2.5106332e-05   1.4142255e-04   0.0000000e+00   1.3550221e-04  -1.3730700e-04  -1.3921696e-07  -4.8387981e-05  -2.9469702e-05   2.1751820e-05   0.0000000e+00   1.0376170e-04   9.2975383e-05   3.8717592e-05   8.7779496e-05   9.5129738e-06   1.4484179e-04   6.3186020e-05   3.8312205e-05   1.4479737e-04   2.2871554e-04   5.3735099e-05   0.0000000e+00   1.4848210e-04   1.1951342e-05   0.0000000e+00   0.0000000e+00   1.5177422e-04   0.0000000e+00   1.5130398e-04   7.3628345e-05  -2.8493576e-04  -8.4709561e-05   3.2989500e-05   0.0000000e+00  -1.5748931e-05   8.7358087e-06   4.4669968e-05   2.7224594e-05   4.5473319e-05   4.7012070e-05   0.0000000e+00  -2.4442424e-05   7.9202246e-05   3.9143912e-05   1.0432996e-05   1.9070010e-05   2.5280228e-05   0.0000000e+00  -2.3920649e-05  -4.7428768e-05  -1.6507047e-05  -1.3112752e-05   1.9906388e-05   2.7200710e-05  -6.9811542e-05  -2.9574251e-05   4.1249859e-06   1.1374413e-05   3.6180697e-05   0.0000000e+00   1.1362645e-04  -6.7864881e-05   0.0000000e+00   0.0000000e+00   2.0412574e-05   0.0000000e+00   9.5930368e-05   2.8313680e-05  -4.4922077e-04  -2.6087582e-04  -7.5305121e-05   0.0000000e+00  -6.8383832e-05  -1.0351215e-04   1.2821699e-04  -7.9967037e-05  -7.5090339e-05  -9.6059150e-05   0.0000000e+00  -1.1293709e-04   5.6179731e-05   7.9410272e-05  -1.7848378e-05  -1.1481759e-04  -4.4282238e-05   0.0000000e+00  -9.8825192e-05  -1.4029347e-04  -5.7250813e-05  -1.4573848e-04  -9.8301005e-05  -2.0100575e-04  -1.7130676e-05  -1.7066851e-04  -9.8867547e-05  -1.1294213e-04  -1.0525358e-04   0.0000000e+00  -7.1191966e-05  -1.3709956e-04   0.0000000e+00   0.0000000e+00  -7.3089868e-05   0.0000000e+00  -3.5464796e-06   8.0059077e-05  -1.4833833e-04  -5.1012407e-06   3.8807648e-05   0.0000000e+00   2.3674177e-05   3.1164373e-06  -3.1991803e-05  -1.3708699e-05  -9.8275728e-06   4.3777812e-05   0.0000000e+00   3.0951107e-05  -4.2428711e-05  -4.0793830e-05  -1.3122494e-05  -7.9119891e-05  -2.6820600e-05   0.0000000e+00  -2.4776733e-06   1.5476167e-05   2.1805148e-05  -2.8924172e-05   2.4871067e-05   1.7444349e-05  -2.9023754e-06   5.4100011e-05   3.5038300e-05  -7.0255244e-06   7.4958588e-06   0.0000000e+00  -5.7843126e-05   4.9294838e-05   0.0000000e+00   0.0000000e+00   3.7253245e-06   0.0000000e+00  -5.6057029e-05   5.7563233e-05  -8.4136418e-04  -1.4862456e-04  -5.7896531e-05   0.0000000e+00  -5.6251823e-05  -1.8494160e-04   2.7062981e-05   5.5288511e-05  -7.0121625e-05  -1.4208041e-04   0.0000000e+00  -2.8304859e-04   6.7833989e-05   6.1109935e-05   1.7099157e-05  -2.3477891e-05  -6.7468436e-05   0.0000000e+00  -2.9956641e-04  -3.9301269e-04  -2.3301869e-04  -2.2331963e-04  -9.0869509e-05  -2.0752772e-04  -7.4769176e-05  -2.9344600e-04  -2.2370683e-04  -1.8968040e-04  -1.3948300e-04   0.0000000e+00  -1.0912409e-04  -2.9740462e-04   0.0000000e+00   0.0000000e+00  -1.2326881e-04   0.0000000e+00   1.2849821e-05  -6.0047751e-05  -7.1032636e-05   5.3530172e-05  -7.8292576e-05   0.0000000e+00   6.3738412e-05  -2.6352723e-05   8.4173261e-05  -5.8249836e-07   2.2385480e-05   6.0834453e-06   0.0000000e+00  -3.7937233e-05  -1.0452021e-04  -3.5807595e-05   1.9626028e-04   3.4158217e-04   1.7114913e-04   0.0000000e+00  -2.1048306e-05  -3.3528862e-05  -5.1557037e-05   9.9569513e-05  -8.4799057e-05   2.2420662e-04   1.3364193e-05   3.9990243e-05   4.1718205e-05   1.1529427e-04   8.8556815e-05   0.0000000e+00   5.7199551e-04  -2.1725497e-04   0.0000000e+00   0.0000000e+00   2.9615908e-05   0.0000000e+00   2.3017950e-04   1.5951071e-04   1.3045148e-05   5.0334902e-05   7.8233017e-05   0.0000000e+00  -4.5858021e-05  -1.8984976e-05   3.2286193e-04   1.8478182e-04   5.1205045e-04  -1.0604873e-04   0.0000000e+00  -3.4595136e-05   1.3462476e-04   3.0714802e-04   4.0527940e-04   5.7671455e-04   2.4469740e-04   0.0000000e+00  -1.1369724e-04  -9.7912332e-05  -7.2760978e-07  -1.8480670e-04  -2.0357685e-04  -6.0982446e-05   1.0076249e-05  -1.0422055e-06  -5.5097492e-06  -4.8081877e-05   2.0060790e-05   0.0000000e+00   5.2528272e-04  -7.9811427e-06   0.0000000e+00   0.0000000e+00  -6.1257083e-05   0.0000000e+00   8.1801998e-04  -2.2858323e-04  -7.6690989e-04  -6.1634062e-04  -8.2417448e-05   0.0000000e+00   4.4527803e-05  -8.9760765e-05  -4.0835834e-04   2.3779605e-05  -2.5063275e-04  -2.6731558e-05   0.0000000e+00  -1.7410790e-04  -4.4886950e-05  -1.4125189e-04  -1.6225573e-04  -1.7433558e-04  -9.5693632e-05   0.0000000e+00  -6.2137918e-05  -9.2451537e-05  -8.0811209e-05  -1.6819262e-04  -1.2042258e-05  -2.8067770e-04  -4.9394993e-05  -8.4502401e-05  -9.4673004e-05  -1.1147952e-04  -3.2052223e-05   0.0000000e+00  -4.6874948e-04  -3.1233897e-05   0.0000000e+00   0.0000000e+00  -3.5827268e-05   0.0000000e+00  -3.6037545e-04  -1.6152950e-04   1.8133073e-04   1.4867947e-04  -9.5548026e-05   0.0000000e+00  -2.8363966e-04   1.0040573e-04  -2.4362953e-04   5.2639842e-05   6.4019737e-05   1.8471569e-04   0.0000000e+00   2.9165997e-04   1.3479480e-05   2.5469779e-05   6.2807934e-05  -1.7880713e-04  -1.1377992e-04   0.0000000e+00   3.0203600e-04   4.8766068e-04   3.1163092e-04   6.4522628e-05   1.2478384e-04   1.6945099e-04   3.3840034e-05   3.3836982e-04   1.5636664e-04   1.7383129e-04   2.0280807e-04   0.0000000e+00   1.1820199e-04   5.7665297e-04   0.0000000e+00   0.0000000e+00   4.4212088e-05   0.0000000e+00  -1.6198981e-04  -1.7392898e-04
  -1.9390413e-05  -2.3289116e-05  -2.0869653e-05   0.0000000e+00  -2.8194556e-05  -6.1192266e-05   3.8069016e-05   1.3894090e-06   8.0071108e-05  -4.0579646e-05   0.0000000e+00  -6.5411483e-05  -1.7229690e-06   2.8177057e-05   7.8445542e-05   6.3956508e-05  -2.8809957e-05   0.0000000e+00  -6.6702740e-05  -1.1099690e-04  -5.1175152e-05  -6.1072364e-05  -7.3719031e-06  -5.7915021e-05  -6.9447471e-06  -9.9931716e-05  -6.5062104e-05  -4.8226363e-05  -6.0677305e-06   0.0000000e+00   1.6145083e-04  -9.7693586e-05   0.0000000e+00   0.0000000e+00  -4.7268415e-05   0.0000000e+00   9.8776250e-05   3.9311016e-05   1.0358014e-04   3.0371314e-05   7.7065554e-05   0.0000000e+00   2.0796761e-05   1.9022567e-05  -1.5585561e-05   3.4696319e-05  -2.3601218e-05  -2.3456276e-05   0.0000000e+00  -4.2810809e-05  -1.0252867e-05  -1.3791605e-05  -1.1084675e-05   3.6834864e-06   1.7250591e-05   0.0000000e+00  -5.2900783e-05  -3.8447663e-05  -7.7655933e-06   1.6698107e-05  -7.2125444e-06   1.6542506e-05   9.1380800e-06  -6.0863873e-05   3.8863121e-05  -5.1768788e-05  -8.7253103e-06   0.0000000e+00  -1.6701536e-04  -1.1338644e-06   0.0000000e+00   0.0000000e+00   5.1833308e-05   0.0000000e+00  -1.1566144e-04  -1.1476861e-04   2.6189852e-04   1.4122961e-04   1.9360042e-05   0.0000000e+00   4.2728432e-05   8.7779674e-05  -6.7880392e-05  -5.3160421e-05   1.2249715e-05   1.5333342e-04   0.0000000e+00   1.1746651e-04  -1.4539017e-04  -1.1937706e-05  -6.5295721e-05  -3.9619692e-05   1.3159787e-05   0.0000000e+00   9.6481569e-05   7.3865342e-05   2.6477161e-05   1.0475573e-04   1.4701765e-05   1.5328396e-04   6.6523837e-05   3.1943937e-05   1.4845962e-04   2.3670047e-04   5.5487143e-05   0.0000000e+00   1.6534547e-04  -5.6119170e-06   0.0000000e+00   0.0000000e+00   1.6517190e-04   0.0000000e+00   1.6595676e-04   1.1274704e-04  -2.9682226e-04  -9.9110442e-05   2.7880650e-05   0.0000000e+00  -2.4825883e-05   4.7822186e-06   4.2737450e-05   2.9993395e-05   3.4731052e-05   4.9266474e-05   0.0000000e+00  -3.0716505e-05   8.1365136e-05   3.5781464e-05   4.1764810e-06   1.3542905e-05   2.1155549e-05   0.0000000e+00  -2.8703910e-05  -5.3892397e-05  -2.3164687e-05  -1.9265316e-05   1.8404600e-05   2.9747644e-05  -7.9560953e-05  -3.2021016e-05   3.1550118e-06   1.0420551e-05   3.3698394e-05   0.0000000e+00   1.0924910e-04  -7.1737207e-05   0.0000000e+00   0.0000000e+00   1.8122474e-05   0.0000000e+00   8.6509409e-05   3.1805955e-05  -4.9592108e-04  -2.9256990e-04  -7.8102143e-05   0.0000000e+00  -7.4997799e-05  -1.0974440e-04   1.2146645e-04  -7.7564208e-05  -8.5623338e-05  -1.0292470e-04   0.0000000e+00  -1.2899787e-04   6.2887310e-05   7.1128636e-05  -3.4811026e-05  -1.3395132e-04  -5.2262865e-05   0.0000000e+00  -1.0846127e-04  -1.5266148e-04  -7.0199186e-05  -1.5859744e-04  -1.0203395e-04  -2.1565959e-04  -2.5610928e-05  -1.8911415e-04  -1.1473929e-04  -1.2629880e-04  -1.0983872e-04   0.0000000e+00  -9.4745683e-05  -1.4525933e-04   0.0000000e+00   0.0000000e+00  -7.4099176e-05   0.0000000e+00  -3.0370937e-05   6.7373845e-05  -1.6971438e-04   6.4105815e-06   3.9090357e-05   0.0000000e+00   1.8577901e-05   2.9949589e-06  -3.2198558e-05  -1.8555579e-05  -1.4700014e-05   4.4172111e-05   0.0000000e+00   3.9091280e-05  -4.7094648e-05  -4.4162089e-05  -2.1498013e-05  -8.2216077e-05  -2.8582199e-05   0.0000000e+00   1.7009017e-06   2.5682925e-05   2.8580801e-05  -2.4591044e-05   2.1818859e-05   2.4303122e-05  -5.8785985e-06   6.8183720e-05   4.2812768e-05  -6.6216104e-07   1.0260258e-05   0.0000000e+00  -5.5523280e-05   5.9239246e-05   0.0000000e+00   0.0000000e+00   7.4554435e-06   0.0000000e+00  -4.5017776e-05   6.1836559e-05  -9.2907738e-04  -1.6734523e-04  -5.9408294e-05   0.0000000e+00  -5.3778503e-05  -1.9849426e-04   2.0628468e-05   6.3872884e-05  -6.6833271e-05  -1.5005133e-04   0.0000000e+00  -3.0650372e-04   6.7576234e-05   6.3764411e-05   2.2675091e-05  -1.7447952e-05  -7.0083522e-05   0.0000000e+00  -3.1967061e-04  -4.1911149e-04  -2.5346222e-04  -2.3523784e-04  -9.8040767e-05  -2.2406148e-04  -8.1999199e-05  -3.1248495e-04  -2.4490316e-04  -2.0470358e-04  -1.4889478e-04   0.0000000e+00  -1.1383890e-04  -3.1515070e-04   0.0000000e+00   0.0000000e+00  -1.2973049e-04   0.0000000e+00   2.0452712e-05  -7.8722822e-05  -6.5460984e-05   7.0694525e-05  -7.5573298e-05   0.0000000e+00   8.0994789e-05  -1.9749443e-05   1.1276954e-04   2.2510246e-05   3.7069135e-05   2.0694506e-05   0.0000000e+00  -2.6508138e-05  -1.1457599e-04  -9.3809764e-06   2.1900188e-04   3.7122398e-04   1.8903517e-04   0.0000000e+00  -6.1647833e-06  -9.7932320e-06  -3.9499688e-05   1.2280948e-04  -8.9778430e-05   2.6053387e-04   1.2592930e-05   5.6478090e-05   5.3452391e-05   1.3305268e-04   1.0954640e-04   0.0000000e+00   6.6689503e-04  -2.1978123e-04   0.0000000e+00   0.0000000e+00   3.7106408e-05   0.0000000e+00   2.6572292e-04   1.7822224e-04  -6.0874426e-06  -2.0951555e-05   6.0448546e-05   0.0000000e+00  -7.7027842e-05  -3.9085668e-05   3.0998303e-04   1.7884636e-04   5.0319369e-04  -1.2899056e-04   0.0000000e+00  -6.7392192e-05   8.6132041e-05   2.9628233e-04   4.0507953e-04   5.5652347e-04   2.2920593e-04   0.0000000e+00  -1.3980982e-04  -1.4826188e-04  -3.8023295e-05  -2.2892266e-04  -2.4572176e-04  -1.2032786e-04  -1.4858709e-05  -4.8165615e-05  -3.2770481e-05  -7.4830145e-05  -8.5254414e-06   0.0000000e+00   4.9078014e-04  -4.9534952e-05   0.0000000e+00   0.0000000e+00  -8.5825449e-05   0.0000000e+00   8.2300085e-04  -2.4736941e-04  -7.9061492e-04  -6.4986236e-04  -9.1265927e-05   0.0000000e+00   3.9641484e-05  -9.6262047e-05  -4.2700525e-04   4.5952549e-05  -2.7835887e-04  -2.2050647e-05   0.0000000e+00  -1.7897259e-04  -5.4861112e-05  -1.4960237e-04  -1.7630224e-04  -2.0074602e-04  -1.0841041e-04   0.0000000e+00  -6.6287339e-05  -9.2343333e-05  -8.7657984e-05  -1.8176756e-04  -1.7162538e-05  -2.8858869e-04  -5.3004975e-05  -8.1790128e-05  -9.6848297e-05  -1.1425098e-04  -3.2761844e-05   0.0000000e+00  -4.9843530e-04  -2.4553928e-05   0.0000000e+00   0.0000000e+00  -3.7815529e-05   0.0000000e+00  -3.8246792e-04  -1.5646532e-04   1.5677523e-04   1.3238648e-04  -7.1980893e-05   0.0000000e+00  -2.4821827e-04   1.2213489e-04  -2.5373657e-04   4.3281315e-05   7.6144320e-05   1.7540813e-04   0.0000000e+00   2.9093226e-04  -4.3070928e-06   1.9745517e-05   6.3183402e-05  -1.6043429e-04  -1.0439089e-04   0.0000000e+00   2.9563804e-04   4.8828774e-04   3.2738733e-04   8.0323556e-05   1.4286506e-04   1.9084116e-04   4.1016587e-05   3.3519915e-04   1.6824235e-04   1.7825445e-04   2.2302234e-04   0.0000000e+00   1.4400530e-04   5.8638938e-04   0.0000000e+00   0.0000000e+00   7.2932942e-05   0.0000000e+00  -1.4797904e-04  -1.7810287e-04
  -2.8516783e-05  -3.0301758e-05  -2.1635895e-05   0.0000000e+00  -3.4260276e-05  -7.0193036e-05   5.2459715e-05   9.0195802e-06   9.0343835e-05  -4.5646473e-05   0.0000000e+00  -7.1940594e-05   8.4525958e-06   3.9038164e-05   9.0648561e-05   7.3548403e-05  -2.5689425e-05   0.0000000e+00  -7.7533741e-05  -1.2661101e-04  -5.9855613e-05  -6.9945475e-05  -1.2087648e-05  -6.3819335e-05  -8.5674515e-06  -1.0990290e-04  -7.0454631e-05  -5.3317841e-05  -8.9813691e-06   0.0000000e+00   1.7547923e-04  -1.0926049e-04   0.0000000e+00   0.0000000e+00  -5.3270403e-05   0.0000000e+00   1.0998885e-04   3.9550689e-05  -1.4069078e-05   1.9669583e-05   8.6105113e-05   0.0000000e+00   2.6234303e-05   2.4375782e-05  -1.5099782e-05   4.5229925e-05  -3.0359049e-05  -2.3275581e-05   0.0000000e+00  -4.6957258e-05  -1.9360608e-05  -1.4583913e-05  -1.7352373e-05   7.6531643e-06   2.0337983e-05   0.0000000e+00  -5.6885424e-05  -4.2473503e-05  -7.0306969e-06   2.8609274e-05  -7.3850481e-06   4.4169675e-05   1.0260065e-05  -6.3548383e-05   4.6699940e-05  -4.8113230e-05  -1.0256064e-06   0.0000000e+00  -1.5766403e-04  -7.7542182e-06   0.0000000e+00   0.0000000e+00   6.4605282e-05   0.0000000e+00  -1.1857387e-04  -1.2721539e-04   3.2084501e-04   1.7561887e-04   2.0386672e-05   0.0000000e+00   4.7286492e-05   7.7069100e-05  -6.6636727e-05  -5.8736729e-05  -3.9299484e-06   1.6265578e-04   0.0000000e+00   9.4817847e-05  -1.5332242e-04  -2.5400498e-05  -8.2485389e-05  -5.1254632e-05   7.1507626e-07   0.0000000e+00   8.8952044e-05   5.4172585e-05   1.1818362e-05   1.1383554e-04   1.6817162e-05   1.5284071e-04   6.8402082e-05   2.6831908e-05   1.5063438e-04   2.4200540e-04   5.5327192e-05   0.0000000e+00   1.7090920e-04  -1.8290331e-05   0.0000000e+00   0.0000000e+00   1.7534032e-04   0.0000000e+00   1.7238678e-04   1.5433254e-04  -3.0183902e-04  -1.1231900e-04   2.2071041e-05   0.0000000e+00  -3.4145281e-05   9.5550942e-07   4.0394299e-05   3.1706528e-05   2.3941904e-05   5.0711748e-05   0.0000000e+00  -3.6658032e-05   8.2105984e-05   3.1763058e-05  -2.5910951e-06   8.5564154e-06   1.7057222e-05   0.0000000e+00  -3.3379842e-05  -6.0032562e-05  -2.9751834e-05  -2.5842588e-05   1.6597954e-05   3.1524304e-05  -8.8996272e-05  -3.4998118e-05   1.7212845e-06   8.4965534e-06   2.9340295e-05   0.0000000e+00   1.0318286e-04  -7.4538013e-05   0.0000000e+00   0.0000000e+00   1.4597336e-05   0.0000000e+00   7.4953256e-05   3.4255878e-05  -5.2771252e-04  -3.1953577e-04  -7.9091076e-05   0.0000000e+00  -8.0289867e-05  -1.1438130e-04   1.1395199e-04  -7.4357966e-05  -9.5791362e-05  -1.0815949e-04   0.0000000e+00  -1.4334046e-04   7.1171034e-05   6.1224331e-05  -5.3469203e-05  -1.5326592e-04  -5.9900608e-05   0.0000000e+00  -1.1694650e-04  -1.6348195e-04  -8.3238123e-05  -1.6990511e-04  -1.0372717e-04  -2.2824195e-04  -3.2995341e-05  -2.0468093e-04  -1.2947269e-04  -1.3807927e-04  -1.1349849e-04   0.0000000e+00  -1.1954600e-04  -1.5095459e-04   0.0000000e+00   0.0000000e+00  -7.3638865e-05   0.0000000e+00  -5.9851095e-05   5.6540629e-05  -1.8529552e-04   2.0672787e-05   3.9096270e-05   0.0000000e+00   1.4020943e-05   3.1621400e-06  -3.3603145e-05  -2.2967110e-05  -2.0230629e-05   4.3425694e-05   0.0000000e+00   4.7295633e-05  -5.1366670e-05  -4.8017290e-05  -3.0730405e-05  -8.2706308e-05  -2.9604970e-05   0.0000000e+00   6.8787518e-06   3.7227875e-05   3.5906816e-05  -1.7773414e-05   1.8471028e-05   3.2082936e-05  -8.5176681e-06   8.2666938e-05   5.0848550e-05   7.0429576e-06   1.3737987e-05   0.0000000e+00  -5.2068896e-05   7.0022770e-05   0.0000000e+00   0.0000000e+00   1.2599934e-05   0.0000000e+00  -3.1730716e-05   6.3858837e-05  -1.0014949e-03  -1.8466662e-04  -6.0781817e-05   0.0000000e+00  -5.1403095e-05  -2.0985505e-04   1.4620025e-05   7.2450456e-05  -5.9916629e-05  -1.5627672e-04   0.0000000e+00  -3.2682574e-04   6.6848269e-05   6.6776966e-05   3.0555578e-05  -8.5589526e-06  -7.0425559e-05   0.0000000e+00  -3.3602629e-04  -4.3971846e-04  -2.7125015e-04  -2.4456578e-04  -1.0432436e-04  -2.3783910e-04  -8.8516009e-05  -3.2808297e-04  -2.6403085e-04  -2.1774407e-04  -1.5691020e-04   0.0000000e+00  -1.1512367e-04  -3.2984401e-04   0.0000000e+00   0.0000000e+00  -1.3542298e-04   0.0000000e+00   3.0145300e-05  -9.9062792e-05  -5.7505540e-05   8.7235410e-05  -7.0224843e-05   0.0000000e+00   9.8212195e-05  -1.1871532e-05   1.4639486e-04   4.7512772e-05   5.4031043e-05   3.6303903e-05   0.0000000e+00  -1.2972890e-05  -1.2030826e-04   2.2224007e-05   2.3954679e-04   3.9680929e-04   2.0428626e-04   0.0000000e+00   9.3989148e-06   1.4807074e-05  -2.7480335e-05   1.4478390e-04  -9.4032123e-05   2.9528847e-04   1.1240725e-05   7.2903845e-05   6.4888799e-05   1.4985746e-04   1.3194861e-04   0.0000000e+00   7.6522576e-04  -2.1902247e-04   0.0000000e+00   0.0000000e+00   4.4685378e-05   0.0000000e+00   3.0214600e-04   1.9889168e-04  -2.2453309e-05  -1.0942543e-04   3.7402227e-05   0.0000000e+00  -1.1440949e-04  -6.3111847e-05   2.9019110e-04   1.6769956e-04   4.8073070e-04  -1.5296336e-04   0.0000000e+00  -1.0504869e-04   3.2178067e-05   2.8061328e-04   3.9513824e-04   5.2080728e-04   2.0673691e-04   0.0000000e+00  -1.6871156e-04  -2.0437128e-04  -8.2088336e-05  -2.7769219e-04  -2.8972892e-04  -1.8718202e-04  -4.5782220e-05  -1.0140120e-04  -6.4701756e-05  -1.0510328e-04  -4.1387575e-05   0.0000000e+00   4.3911670e-04  -9.6544052e-05   0.0000000e+00   0.0000000e+00  -1.1417903e-04   0.0000000e+00   8.1389147e-04  -2.6932836e-04  -7.9663760e-04  -6.7178346e-04  -1.0046167e-04   0.0000000e+00   3.1914857e-05  -1.0167394e-04  -4.3907557e-04   6.6517143e-05  -3.0218362e-04  -1.8633935e-05   0.0000000e+00  -1.7981221e-04  -6.3547516e-05  -1.5411445e-04  -1.8632915e-04  -2.2393034e-04  -1.1932044e-04   0.0000000e+00  -6.7631673e-05  -8.7648221e-05  -9.1672923e-05  -1.9274794e-04  -2.2774434e-05  -2.9324024e-04  -5.6265906e-05  -7.6340141e-05  -9.7613186e-05  -1.1525925e-04  -3.5380217e-05   0.0000000e+00  -5.2517213e-04  -1.5440075e-05   0.0000000e+00   0.0000000e+00  -3.9197802e-05   0.0000000e+00  -3.9769220e-04  -1.4850705e-04   1.3260222e-04   1.1645147e-04  -4.5310703e-05   0.0000000e+00  -2.0495913e-04   1.4354817e-04  -2.6148985e-04   3.2368842e-05   8.8788006e-05   1.6498832e-04   0.0000000e+00   2.8518464e-04  -2.2761570e-05   1.3751794e-05   6.3135697e-05  -1.3751263e-04  -9.1918133e-05   0.0000000e+00   2.8440134e-04   4.8321952e-04   3.3952763e-04   9.7459812e-05   1.6119148e-04   2.1472869e-04   4.9257191e-05   3.2801887e-04   1.7952787e-04   1.8097738e-04   2.4297470e-04   0.0000000e+00   1.6899571e-04   5.9104998e-04   0.0000000e+00   0.0000000e+00   1.0337833e-04   0.0000000e+00  -1.3205261e-04  -1.7853811e-04
  -3.9707285e-05  -3.8320716e-05  -2.2557672e-05   0.0000000e+00  -4.0685859e-05  -7.8954665e-05   6.6294233e-05   1.7085203e-05   9.9442081e-05  -5.0803642e-05   0.0000000e+00  -7.8128410e-05   1.9113456e-05   4.9548658e-05   1.0247300e-04   8.2477216e-05  -2.2056434e-05   0.0000000e+00  -8.8185182e-05  -1.4172209e-04  -6.8292689e-05  -7.9360778e-05  -1.7056864e-05  -7.0631902e-05  -1.0451639e-05  -1.1927418e-04  -7.5371660e-05  -5.8410017e-05  -1.2621677e-05   0.0000000e+00   1.8679185e-04  -1.2011441e-04   0.0000000e+00   0.0000000e+00  -5.9173872e-05   0.0000000e+00   1.1981733e-04   3.9527890e-05  -1.3414597e-04   9.6524489e-06   9.0507825e-05   0.0000000e+00   2.9207633e-05   2.8484547e-05  -1.7303609e-05   5.3894526e-05  -3.7831120e-05  -2.4254157e-05   0.0000000e+00  -5.2034368e-05  -3.3063176e-05  -1.6132958e-05  -2.2415372e-05   1.1631331e-05   2.2473061e-05   0.0000000e+00  -6.0568409e-05  -4.6404285e-05  -6.1094827e-06   3.8202328e-05  -9.0625775e-06   7.1450049e-05   1.0681145e-05  -6.6736377e-05   5.3724100e-05  -4.5122251e-05   3.4891753e-06   0.0000000e+00  -1.5062910e-04  -1.5686401e-05   0.0000000e+00   0.0000000e+00   7.4577066e-05   0.0000000e+00  -1.2306924e-04  -1.3996762e-04   3.7741401e-04   2.0202891e-04   1.7711034e-05   0.0000000e+00   4.9076378e-05   6.1850649e-05  -7.0031776e-05  -6.3841767e-05  -2.2923923e-05   1.6923997e-04   0.0000000e+00   6.8712555e-05  -1.6178618e-04  -4.0283687e-05  -9.9172434e-05  -6.4142303e-05  -1.5224160e-05   0.0000000e+00   8.2247977e-05   3.5179192e-05  -4.7798870e-06   1.1294363e-04   1.5120161e-05   1.4251967e-04   6.8646801e-05   2.3717769e-05   1.5150470e-04   2.4473825e-04   5.3403905e-05   0.0000000e+00   1.6386169e-04  -2.4394772e-05   0.0000000e+00   0.0000000e+00   1.8181142e-04   0.0000000e+00   1.6974800e-04   1.9635149e-04  -3.0007054e-04  -1.2373140e-04   1.5743229e-05   0.0000000e+00  -4.3480069e-05  -2.5565433e-06   3.7680932e-05   3.2271464e-05   1.3665828e-05   5.1331343e-05   0.0000000e+00  -4.2079328e-05   8.1454886e-05   2.7367663e-05  -9.5954621e-06   4.2553042e-06   1.3239178e-05   0.0000000e+00  -3.7790533e-05  -6.5715770e-05  -3.6001411e-05  -3.2764639e-05   1.4581144e-05   3.2215477e-05  -9.7930874e-05  -3.8555952e-05  -2.0153747e-07   5.5393145e-06   2.3079079e-05   0.0000000e+00   9.5444087e-05  -7.6243598e-05   0.0000000e+00   0.0000000e+00   9.8665747e-06   0.0000000e+00   6.1681391e-05   3.5373120e-05  -5.4375966e-04  -3.4068364e-04  -7.8320313e-05   0.0000000e+00  -8.4114322e-05  -1.1726908e-04   1.0623126e-04  -7.0961426e-05  -1.0520813e-04  -1.1167047e-04   0.0000000e+00  -1.5541387e-04   8.0827390e-05   5.0320023e-05  -7.3140796e-05  -1.7220695e-04  -6.6943888e-05   0.0000000e+00  -1.2390196e-04  -1.7235276e-04  -9.5866381e-05  -1.7918326e-04  -1.0336866e-04  -2.3834799e-04  -3.8936088e-05  -2.1670113e-04  -1.4251841e-04  -1.4785527e-04  -1.1636196e-04   0.0000000e+00  -1.4524888e-04  -1.5403515e-04   0.0000000e+00   0.0000000e+00  -7.1723816e-05   0.0000000e+00  -9.0752340e-05   4.8490949e-05  -1.9383632e-04   3.7257137e-05   3.8990375e-05   0.0000000e+00   1.0471001e-05   3.7534500e-06  -3.6601098e-05  -2.6851046e-05  -2.6313195e-05   4.1642191e-05   0.0000000e+00   5.5348773e-05  -5.5256209e-05  -5.2636730e-05  -4.0689859e-05  -8.0613385e-05  -2.9876717e-05   0.0000000e+00   1.2978205e-05   4.9860860e-05   4.3658465e-05  -8.6121691e-06   1.5113446e-05   4.0447571e-05  -1.0640715e-05   9.7153176e-05   5.8968812e-05   1.5908816e-05   1.7883849e-05   0.0000000e+00  -4.7912904e-05   8.1484066e-05   0.0000000e+00   0.0000000e+00   1.9145219e-05   0.0000000e+00  -1.6984263e-05   6.3524762e-05  -1.0560982e-03  -1.9975015e-04  -6.2072387e-05   0.0000000e+00  -4.9478304e-05  -2.1884828e-04   9.3690446e-06   8.0858754e-05  -4.9411886e-05  -1.6074877e-04   0.0000000e+00  -3.4360176e-04   6.5815826e-05   7.0274795e-05   4.0808082e-05   3.2149212e-06  -6.8304248e-05   0.0000000e+00  -3.4843229e-04  -4.5444873e-04  -2.8600356e-04  -2.5106903e-04  -1.0961103e-04  -2.4839868e-04  -9.4163796e-05  -3.4005543e-04  -2.8063844e-04  -2.2857378e-04  -1.6352218e-04   0.0000000e+00  -1.1284145e-04  -3.4141354e-04   0.0000000e+00   0.0000000e+00  -1.4032207e-04   0.0000000e+00   4.1768738e-05  -1.2023206e-04  -4.7371962e-05   1.0256188e-04  -6.2256881e-05   0.0000000e+00   1.1482916e-04  -2.9032244e-06   1.8457396e-04   7.3543243e-05   7.2092421e-05   5.2500572e-05   0.0000000e+00   2.1967027e-06  -1.2112833e-04   5.7969610e-05   2.5663400e-04   4.1721587e-04   2.1621861e-04   0.0000000e+00   2.4939244e-05   3.8968919e-05  -1.6332471e-05   1.6451394e-04  -9.7681697e-05   3.2717870e-04   9.3591508e-06   8.8643165e-05   7.5596609e-05   1.6521694e-04   1.5515476e-04   0.0000000e+00   8.6381102e-04  -2.1524590e-04   0.0000000e+00   0.0000000e+00   5.2211234e-05   0.0000000e+00   3.3857438e-04   2.2167648e-04  -3.6187683e-05  -2.1354722e-04   9.3039199e-06   0.0000000e+00  -1.5768996e-04  -9.0673971e-05   2.6322817e-04   1.5102858e-04   4.4528399e-04  -1.7792471e-04   0.0000000e+00  -1.4686002e-04  -2.5766443e-05   2.6046843e-04   3.7595288e-04   4.7128357e-04   1.7803056e-04   0.0000000e+00  -1.9986662e-04  -2.6455160e-04  -1.3186346e-04  -3.3036339e-04  -3.3430267e-04  -2.6001571e-04  -8.2134054e-05  -1.5901002e-04  -1.0043610e-04  -1.3817058e-04  -7.7558983e-05   0.0000000e+00   3.7189393e-04  -1.4702632e-04   0.0000000e+00   0.0000000e+00  -1.4584576e-04   0.0000000e+00   7.9207810e-04  -2.9597713e-04  -7.8605868e-04  -6.8217541e-04  -1.0948558e-04   0.0000000e+00   2.2175482e-05  -1.0570693e-04  -4.4486775e-04   8.4116378e-05  -3.2104813e-04  -1.6901438e-05   0.0000000e+00  -1.7677153e-04  -7.0657720e-05  -1.5454877e-04  -1.9166170e-04  -2.4238557e-04  -1.2774350e-04   0.0000000e+00  -6.5914575e-05  -7.8080670e-05  -9.2345737e-05  -2.0052555e-04  -2.8469985e-05  -2.9495892e-04  -5.8905430e-05  -6.8454233e-05  -9.7031040e-05  -1.1469026e-04  -4.0097983e-05   0.0000000e+00  -5.4933888e-04  -4.1027825e-06   0.0000000e+00   0.0000000e+00  -3.9802714e-05   0.0000000e+00  -4.0580016e-04  -1.3862482e-04   1.1049762e-04   1.0217802e-04  -1.7123873e-05   0.0000000e+00  -1.5636276e-04   1.6327452e-04  -2.6751675e-04   2.0380714e-05   1.0109273e-04   1.5407779e-04   0.0000000e+00   2.7437937e-04  -4.1387657e-05   7.5358673e-06   6.2733748e-05  -1.1110533e-04  -7.7114884e-05   0.0000000e+00   2.6893668e-04   4.7301886e-04   3.4770061e-04   1.1510096e-04   1.7929583e-04   2.4049191e-04   5.8318014e-05   3.1720864e-04   1.8984176e-04   1.8177783e-04   2.6223273e-04   0.0000000e+00   1.9236527e-04   5.9134517e-04   0.0000000e+00   0.0000000e+00   1.3424909e-04   0.0000000e+00  -1.1553683e-04  -1.7600658e-04
  -5.2865191e-05  -4.7286389e-05  -2.3678748e-05   0.0000000e+00  -4.7315791e-05  -8.7293471e-05   7.9053722e-05   2.5381372e-05   1.0689912e-04  -5.5918978e-05   0.0000000e+00  -8.3920202e-05   2.9885015e-05   5.9331018e-05   1.1354850e-04   9.0441229e-05  -1.8095446e-05   0.0000000e+00  -9.8390381e-05  -1.5594481e-04  -7.6267575e-05  -8.9204589e-05  -2.2155004e-05  -7.8391786e-05  -1.2587012e-05  -1.2785717e-04  -7.9775323e-05  -6.3483302e-05  -1.6997416e-05   0.0000000e+00   1.9483679e-04  -1.3007721e-04   0.0000000e+00   0.0000000e+00  -6.4837574e-05   0.0000000e+00   1.2795576e-04   3.9369510e-05  -2.4833278e-04   7.1102206e-07   8.9645031e-05   0.0000000e+00   2.9226398e-05   3.0869555e-05  -2.2486616e-05   5.9882618e-05  -4.5381421e-05  -2.6737203e-05   0.0000000e+00  -5.8212978e-05  -5.1381186e-05  -1.8580621e-05  -2.5467040e-05   1.5698344e-05   2.3463288e-05   0.0000000e+00  -6.4111744e-05  -5.0317443e-05  -5.2539637e-06   4.4436720e-05  -1.2578304e-05   9.6350351e-05   1.0455851e-05  -7.0677379e-05   5.9606575e-05  -4.3302763e-05   3.8469533e-06   0.0000000e+00  -1.4740495e-04  -2.4866451e-05   0.0000000e+00   0.0000000e+00   8.0858029e-05   0.0000000e+00  -1.2965149e-04  -1.5292377e-04   4.2831614e-04   2.1757902e-04   1.1055686e-05   0.0000000e+00   4.7787500e-05   4.2653355e-05  -7.9334262e-05  -6.8268518e-05  -4.4009881e-05   1.7316241e-04   0.0000000e+00   4.0503580e-05  -1.7150252e-04  -5.6232645e-05  -1.1458218e-04  -7.7915691e-05  -3.4022179e-05   0.0000000e+00   7.7385061e-05   1.8084941e-05  -2.2729223e-05   1.0055424e-04   9.0951010e-06   1.2194247e-04   6.7155172e-05   2.3243376e-05   1.5130318e-04   2.4513127e-04   5.0049881e-05   0.0000000e+00   1.4389394e-04  -2.2621476e-05   0.0000000e+00   0.0000000e+00   1.8436803e-04   0.0000000e+00   1.5786000e-04   2.3665552e-04  -2.9179579e-04  -1.3284594e-04   9.0640582e-06   0.0000000e+00  -5.2624608e-05  -5.6096044e-06   3.4590685e-05   3.1667858e-05   4.3330844e-06   5.1145138e-05   0.0000000e+00  -4.6847435e-05   7.9499552e-05   2.2864869e-05  -1.6582089e-05   6.7515564e-07   9.9017695e-06   0.0000000e+00  -4.1792275e-05  -7.0826402e-05  -4.1672559e-05  -3.9951097e-05   1.2450352e-05   3.1533510e-05  -1.0619855e-04  -4.2700330e-05  -2.6256221e-06   1.5364376e-06   1.4979256e-05   0.0000000e+00   8.6003505e-05  -7.6888145e-05   0.0000000e+00   0.0000000e+00   4.0194185e-06   0.0000000e+00   4.7122522e-05   3.4953828e-05  -5.4416637e-04  -3.5515450e-04  -7.5949037e-05   0.0000000e+00  -8.6393126e-05  -1.1830547e-04   9.8760637e-05  -6.8034739e-05  -1.1355288e-04  -1.1343479e-04   0.0000000e+00  -1.6476899e-04   9.1500315e-05   3.9050934e-05  -9.3133537e-05  -1.9026510e-04  -7.3184443e-05   0.0000000e+00  -1.2897408e-04  -1.7890132e-04  -1.0757238e-04  -1.8599054e-04  -1.0101571e-04  -2.4559416e-04  -4.3185671e-05  -2.2464013e-04  -1.5339026e-04  -1.5527572e-04  -1.1855606e-04   0.0000000e+00  -1.7153515e-04  -1.5444615e-04   0.0000000e+00   0.0000000e+00  -6.8423695e-05   0.0000000e+00  -1.2180535e-04   4.3878022e-05  -1.9440065e-04   5.5580843e-05   3.8939249e-05   0.0000000e+00   8.3178632e-06   4.8839156e-06  -4.1524024e-05  -3.0186098e-05  -3.2839640e-05   3.8984117e-05   0.0000000e+00   6.3057433e-05  -5.8823425e-05  -5.8281142e-05  -5.1236020e-05  -7.6131857e-05  -2.9448434e-05   0.0000000e+00   1.9876585e-05   6.3284657e-05   5.1698796e-05   2.6114578e-06   1.2021454e-05   4.8985803e-05  -1.2097345e-05   1.1125098e-04   6.6995810e-05   2.5699191e-05   2.2612093e-05   0.0000000e+00  -4.3573359e-05   9.3420056e-05   0.0000000e+00   0.0000000e+00   2.6998857e-05   0.0000000e+00  -1.6591608e-06   6.0905655e-05  -1.0914077e-03  -2.1185428e-04  -6.3305035e-05   0.0000000e+00  -4.8272776e-05  -2.2539047e-04   5.0894775e-06   8.8942680e-05  -3.5585901e-05  -1.6352806e-04   0.0000000e+00  -3.5656576e-04   6.4598264e-05   7.4303747e-05   5.3329143e-05   1.7751891e-05  -6.3651780e-05   0.0000000e+00  -3.5684461e-04  -4.6316258e-04  -2.9746974e-04  -2.5457014e-04  -1.1382344e-04  -2.5539843e-04  -9.8808336e-05  -3.4834888e-04  -2.9435847e-04  -2.3704423e-04  -1.6878130e-04   0.0000000e+00  -1.0708076e-04  -3.4987990e-04   0.0000000e+00   0.0000000e+00  -1.4438260e-04   0.0000000e+00   5.4998152e-05  -1.4127092e-04  -3.5413988e-05   1.1612603e-04  -5.1830697e-05   0.0000000e+00   1.3030080e-04   6.9268289e-06   2.2645820e-04   9.9600182e-05   8.9753888e-05   6.8874323e-05   0.0000000e+00   1.8431675e-05  -1.1667318e-04   9.6474066e-05   2.6895848e-04   4.3136073e-04   2.2425724e-04   0.0000000e+00   3.9796390e-05   6.1448061e-05  -6.8110404e-06   1.8113048e-04  -1.0089293e-04   3.5498880e-04   7.0234022e-06   1.0310994e-04   8.5190647e-05   1.7872101e-04   1.7844839e-04   0.0000000e+00   9.5860604e-04  -2.0881700e-04   0.0000000e+00   0.0000000e+00   5.9554056e-05   0.0000000e+00   3.7391495e-04   2.4659684e-04  -4.7656425e-05  -3.3075232e-04  -2.3367897e-05   0.0000000e+00  -2.0614105e-04  -1.2112211e-04   2.2892425e-04   1.2870613e-04   3.9818465e-04  -2.0379344e-04   0.0000000e+00  -1.9180447e-04  -8.6196181e-05   2.3615594e-04   3.4851871e-04   4.1042063e-04   1.4413478e-04   0.0000000e+00  -2.3249114e-04  -3.2675689e-04  -1.8588482e-04  -3.8580984e-04  -3.7799738e-04  -3.3692102e-04  -1.2295512e-04  -2.1890284e-04  -1.3881331e-04  -1.7306190e-04  -1.1589759e-04   0.0000000e+00   2.9138228e-04  -1.9870434e-04   0.0000000e+00   0.0000000e+00  -1.8007410e-04   0.0000000e+00   7.5940124e-04  -3.2841144e-04  -7.6095072e-04  -6.8178268e-04  -1.1770899e-04   0.0000000e+00   1.1499429e-05  -1.0806442e-04  -4.4495023e-04   9.7654456e-05  -3.3401631e-04  -1.7066430e-05   0.0000000e+00  -1.7019321e-04  -7.6068419e-05  -1.5085353e-04  -1.9181170e-04  -2.5476168e-04  -1.3306658e-04   0.0000000e+00  -6.1055821e-05  -6.3621902e-05  -8.9329734e-05  -2.0460581e-04  -3.3761192e-05  -2.9412388e-04  -6.0627529e-05  -5.8604022e-05  -9.5199558e-05  -1.1281306e-04  -4.6894030e-05   0.0000000e+00  -5.7132110e-04   9.1247027e-06   0.0000000e+00   0.0000000e+00  -3.9476906e-05   0.0000000e+00  -4.0691858e-04  -1.2801346e-04   9.1835033e-05   9.0602296e-05   1.0836388e-05   0.0000000e+00  -1.0532095e-04   1.7988962e-04  -2.7256600e-04   7.8392476e-06   1.1212009e-04   1.4316693e-04   0.0000000e+00   2.5861617e-04  -5.9733272e-05   1.0848068e-06   6.2046170e-05  -8.2482849e-05  -6.0915310e-05   0.0000000e+00   2.4992864e-04   4.5823054e-04   3.5162359e-04   1.3223970e-04   1.9667631e-04   2.6722043e-04   6.7882231e-05   3.0313816e-04   1.9873102e-04   1.8039251e-04   2.8033035e-04   0.0000000e+00   2.1333612e-04   5.8798619e-04   0.0000000e+00   0.0000000e+00   1.6417309e-04   0.0000000e+00  -9.9801543e-05  -1.7162208e-04
  -6.7717356e-05  -5.7076659e-05  -2.5025468e-05   0.0000000e+00  -5.3982657e-05  -9.5037504e-05   9.0277588e-05   3.3701908e-05   1.1228703e-04  -6.0843145e-05   0.0000000e+00  -8.9264593e-05   4.0369522e-05   6.8053737e-05   1.2350043e-04   9.7147151e-05  -1.4005492e-05   0.0000000e+00  -1.0788850e-04  -1.6890368e-04  -8.3574495e-05  -9.9316369e-05  -2.7263373e-05  -8.7056261e-05  -1.4958372e-05  -1.3546810e-04  -8.3637446e-05  -6.8508886e-05  -2.2081449e-05   0.0000000e+00   1.9913916e-04  -1.3899463e-04   0.0000000e+00   0.0000000e+00  -7.0118817e-05   0.0000000e+00   1.3413985e-04   3.9162093e-05  -3.4861423e-04  -6.9920475e-06   8.3251090e-05   0.0000000e+00   2.6026306e-05   3.1152436e-05  -3.0778672e-05   6.2511693e-05  -5.2321417e-05  -3.1012705e-05   0.0000000e+00  -6.5626762e-05  -7.4041209e-05  -2.2058955e-05  -2.5762119e-05   2.0069084e-05   2.3213247e-05   0.0000000e+00  -6.7702888e-05  -5.4311174e-05  -4.7400078e-06   4.6552982e-05  -1.8157172e-05   1.1696218e-04   9.7016398e-06  -7.5596188e-05   6.4090425e-05  -4.3067410e-05  -6.3756832e-07   0.0000000e+00  -1.4912406e-04  -3.5177681e-05   0.0000000e+00   0.0000000e+00   8.2837740e-05   0.0000000e+00  -1.3862037e-04  -1.6599517e-04   4.7042234e-04   2.1992450e-04   4.6144063e-07   0.0000000e+00   4.3347762e-05   2.0280593e-05  -9.5421288e-05  -7.1857755e-05  -6.6274923e-05   1.7470955e-04   0.0000000e+00   1.1651381e-05  -1.8314527e-04  -7.2787878e-05  -1.2800078e-04  -9.2085065e-05  -5.4797890e-05   0.0000000e+00   7.5248243e-05   3.9309040e-06  -4.1359575e-05   7.5816832e-05  -1.5245957e-06   9.1386884e-05   6.3931384e-05   2.5900411e-05   1.5029561e-04   2.4350035e-04   4.5727690e-05   0.0000000e+00   1.1170138e-04  -1.2132048e-05   0.0000000e+00   0.0000000e+00   1.8307125e-04   0.0000000e+00   1.3721666e-04   2.7314660e-04  -2.7743602e-04  -1.3930243e-04   2.1793541e-06   0.0000000e+00  -6.1395769e-05  -8.1123503e-06   3.1076996e-05   2.9942219e-05  -3.7827984e-06   5.0205373e-05   0.0000000e+00  -5.0890832e-05   7.6386972e-05   1.8494875e-05  -2.3334545e-05  -2.2585582e-06   7.1785804e-06   0.0000000e+00  -4.5265934e-05  -7.5271182e-05  -4.6565101e-05  -4.7320727e-05   1.0301241e-05   2.9252856e-05  -1.1365500e-04  -4.7391985e-05  -5.5481856e-06  -3.4711824e-06   5.2009879e-06   0.0000000e+00   7.4815261e-05  -7.6560174e-05   0.0000000e+00   0.0000000e+00  -2.7961378e-06   0.0000000e+00   3.1686351e-05   3.2900875e-05  -5.2992023e-04  -3.6235136e-04  -7.2233316e-05   0.0000000e+00  -8.7110843e-05  -1.1744221e-04   9.1866113e-05  -6.6239289e-05  -1.2059180e-04  -1.1349099e-04   0.0000000e+00  -1.7108571e-04   1.0271854e-04   2.8019871e-05  -1.1279018e-04  -2.0700809e-04  -7.8470501e-05   0.0000000e+00  -1.3185740e-04  -1.8280390e-04  -1.1785389e-04  -1.8995385e-04  -9.6787273e-05  -2.4965055e-04  -4.5606505e-05  -2.2812118e-04  -1.6168777e-04  -1.6008222e-04  -1.2018291e-04   0.0000000e+00  -1.9811140e-04  -1.5222606e-04   0.0000000e+00   0.0000000e+00  -6.3855381e-05   0.0000000e+00  -1.5178731e-04   4.3056148e-05  -1.8639565e-04   7.4941715e-05   3.9105494e-05   0.0000000e+00   7.8631743e-06   6.6413062e-06  -4.8615129e-05  -3.3014481e-05  -3.9715506e-05   3.5661896e-05   0.0000000e+00   7.0256256e-05  -6.2171860e-05  -6.5164983e-05  -6.2221775e-05  -6.9623789e-05  -2.8432935e-05   0.0000000e+00   2.7411803e-05   7.7167784e-05   5.9879229e-05   1.5501689e-05   9.4401862e-06   5.7246331e-05  -1.2774384e-05   1.2459159e-04   7.4761521e-05   3.6140684e-05   2.7801689e-05   0.0000000e+00  -3.9622469e-05   1.0559062e-04   0.0000000e+00   0.0000000e+00   3.5995621e-05   0.0000000e+00   1.3327978e-05   5.6242639e-05  -1.1070606e-03  -2.2039043e-04  -6.4472575e-05   0.0000000e+00  -4.7955809e-05  -2.2948269e-04   1.8652562e-06   9.6555008e-05  -1.8924882e-05  -1.6474366e-04   0.0000000e+00  -3.6560343e-04   6.3257766e-05   7.8821848e-05   6.7840036e-05   3.4782442e-05  -5.6533434e-05   0.0000000e+00  -3.6136775e-04  -4.6597164e-04  -3.0552695e-04  -2.5496305e-04  -1.1692342e-04  -2.5864030e-04  -1.0234566e-04  -3.5304075e-04  -3.0491748e-04  -2.4308912e-04  -1.7278609e-04   0.0000000e+00  -9.8149086e-05  -3.5534572e-04   0.0000000e+00   0.0000000e+00  -1.4753595e-04   0.0000000e+00   6.9357871e-05  -1.6115852e-04  -2.2134142e-05   1.2744316e-04  -3.9267861e-05   0.0000000e+00   1.4412073e-04   1.7351026e-05   2.7080688e-04   1.2458482e-04   1.0529919e-04   8.5025966e-05   0.0000000e+00   3.5089567e-05  -1.0682523e-04   1.3605623e-04   2.7527152e-04   4.3826456e-04   2.2797108e-04   0.0000000e+00   5.3386651e-05   8.1133767e-05   4.5500315e-07   1.9393133e-04  -1.0385312e-04   3.7768061e-04   4.3200438e-06   1.1579632e-04   9.3352885e-05   1.9006182e-04   2.0104376e-04   0.0000000e+00   1.0448671e-03  -2.0018376e-04   0.0000000e+00   0.0000000e+00   6.6594397e-05   0.0000000e+00   4.0688896e-04   2.7350572e-04  -5.7319959e-05  -4.5753019e-04  -5.9849553e-05   0.0000000e+00  -2.5861327e-04  -1.5355019e-04   1.8730782e-04   1.0085731e-04   3.4141371e-04  -2.3039161e-04   0.0000000e+00  -2.3855409e-04  -1.4759083e-04   2.0799915e-04   3.1428388e-04   3.4128960e-04   1.0637995e-04   0.0000000e+00  -2.6556738e-04  -3.8866583e-04  -2.4233406e-04  -4.4252652e-04  -4.1929767e-04  -4.1564665e-04  -1.6692277e-04  -2.7870161e-04  -1.7840230e-04  -2.0857570e-04  -1.5512613e-04   0.0000000e+00   2.0042713e-04  -2.4912670e-04   0.0000000e+00   0.0000000e+00  -2.1585325e-04   0.0000000e+00   7.1803724e-04  -3.6714190e-04  -7.2422033e-04  -6.7195392e-04  -1.2444473e-04   0.0000000e+00   1.1097328e-06  -1.0846356e-04  -4.4009262e-04   1.0639607e-04  -3.4028421e-04  -1.9105396e-05   0.0000000e+00  -1.6059423e-04  -7.9838235e-05  -1.4314676e-04  -1.8649219e-04  -2.5994515e-04  -1.3478616e-04   0.0000000e+00  -5.3163159e-05  -4.4518961e-05  -8.2471440e-05  -2.0464359e-04  -3.8115779e-05  -2.9113079e-04  -6.1145882e-05  -4.7397736e-05  -9.2238417e-05  -1.0995546e-04  -5.5525797e-05   0.0000000e+00  -5.9143710e-04   2.3802598e-05   0.0000000e+00   0.0000000e+00  -3.8096193e-05   0.0000000e+00  -4.0151336e-04  -1.1802869e-04   7.7604075e-05   8.2424382e-05   3.6771768e-05   0.0000000e+00  -5.4960784e-05   1.9202636e-04  -2.7740614e-04  -4.7085935e-06   1.2094038e-04   1.3259731e-04   0.0000000e+00   2.3817382e-04  -7.7374704e-05  -5.6516786e-06   6.1154645e-05  -5.3054539e-05  -4.4392404e-05   0.0000000e+00   2.2809299e-04   4.3936119e-04   3.5110452e-04   1.4775951e-04   2.1281024e-04   2.9377842e-04   7.7568386e-05   2.8616417e-04   2.0570823e-04   1.7656497e-04   2.9680724e-04   0.0000000e+00   2.3118786e-04   5.8167021e-04   0.0000000e+00   0.0000000e+00   1.9178654e-04   0.0000000e+00  -8.6196557e-05  -1.6678886e-04
  -8.3825495e-05  -6.7515484e-05  -2.6607863e-05   0.0000000e+00  -6.0515042e-05  -1.0203209e-04   9.9578120e-05   4.1844556e-05   1.1525014e-04  -6.5420173e-05   0.0000000e+00  -9.4111752e-05   5.0158245e-05   7.5442182e-05   1.3197113e-04   1.0231874e-04  -9.9900399e-06   0.0000000e+00  -1.1643165e-04  -1.8024510e-04  -9.0028611e-05  -1.0948975e-04  -3.2271626e-05  -9.6495206e-05  -1.7548811e-05  -1.4193773e-04  -8.6937275e-05  -7.3446360e-05  -2.7806608e-05   0.0000000e+00   1.9932890e-04  -1.4673448e-04   0.0000000e+00   0.0000000e+00  -7.4879022e-05   0.0000000e+00   1.3815624e-04   3.8938130e-05  -4.2794464e-04  -1.3547423e-05   7.1451387e-05   0.0000000e+00   1.9598380e-05   2.9086930e-05  -4.2148931e-05   6.1276641e-05  -5.7971713e-05  -3.7281718e-05   0.0000000e+00  -7.4353580e-05  -1.0048987e-04  -2.6694762e-05  -2.2680176e-05   2.5088518e-05   2.1742274e-05   0.0000000e+00  -7.1536750e-05  -5.8505707e-05  -4.8476256e-06   4.4153866e-05  -2.5889237e-05   1.3168220e-04   8.5765975e-06  -8.1680770e-05   6.7007177e-05  -4.4702279e-05  -1.0293033e-05   0.0000000e+00  -1.5644661e-04  -4.6455501e-05   0.0000000e+00   0.0000000e+00   8.0252408e-05   0.0000000e+00  -1.5004188e-04  -1.7910523e-04   5.0103125e-04   2.0744036e-04  -1.3721052e-05   0.0000000e+00   3.5943274e-05  -4.2527718e-06  -1.1868241e-04  -7.4510649e-05  -8.8688103e-05   1.7435604e-04   0.0000000e+00  -1.6382709e-05  -1.9725742e-04  -8.9380249e-05  -1.3882307e-04  -1.0605575e-04  -7.6486734e-05   0.0000000e+00   7.6526789e-05  -6.4547106e-06  -5.9933101e-05   3.8638929e-05  -1.6727418e-05   5.1740577e-05   5.9080183e-05   3.2013088e-05   1.4877558e-04   2.4024171e-04   4.1004225e-05   0.0000000e+00   6.8914385e-05   7.3989795e-06   0.0000000e+00   0.0000000e+00   1.7826023e-04   0.0000000e+00   1.0891931e-04   3.0392483e-04  -2.5752193e-04  -1.4290924e-04  -4.7886420e-06   0.0000000e+00  -6.9640349e-05  -1.0024966e-05   2.7061830e-05   2.7204785e-05  -1.0569599e-05   4.8594237e-05   0.0000000e+00  -5.4203661e-05   7.2313321e-05   1.4450507e-05  -2.9684660e-05  -4.7176533e-06   5.1330269e-06   0.0000000e+00  -4.8123543e-05  -7.8984987e-05  -5.0531005e-05  -5.4791594e-05   8.2262179e-06   2.5235702e-05  -1.2018327e-04  -5.2550001e-05  -8.9530653e-06  -9.3909168e-06  -6.0067673e-06   0.0000000e+00   6.1850537e-05  -7.5398396e-05   0.0000000e+00   0.0000000e+00  -1.0385575e-05   0.0000000e+00   1.5746660e-05   2.9228252e-05  -5.0277987e-04  -3.6196851e-04  -6.7500539e-05   0.0000000e+00  -8.6306977e-05  -1.1468812e-04   8.5722779e-05  -6.6181838e-05  -1.2618986e-04  -1.1193309e-04   0.0000000e+00  -1.7417793e-04   1.1393574e-04   1.7753597e-05  -1.3153027e-04  -2.2210446e-04  -8.2715490e-05   0.0000000e+00  -1.3231186e-04  -1.8379962e-04  -1.2624930e-04  -1.9079432e-04  -9.0852150e-05  -2.5027742e-04  -4.6165526e-05  -2.2694473e-04  -1.6711440e-04  -1.6211845e-04  -1.2130788e-04   0.0000000e+00  -2.2471328e-04  -1.4749784e-04   0.0000000e+00   0.0000000e+00  -5.8178718e-05   0.0000000e+00  -1.7959859e-04   4.6073860e-05  -1.6960016e-04   9.4557512e-05   3.9642803e-05   0.0000000e+00   9.3144014e-06   9.0760120e-06  -5.8004814e-05  -3.5431155e-05  -4.6867138e-05   3.1918619e-05   0.0000000e+00   7.6815616e-05  -6.5441732e-05  -7.3430126e-05  -7.3496651e-05  -6.1601664e-05  -2.6998699e-05   0.0000000e+00   3.5390472e-05   9.1160205e-05   6.8045994e-05   2.9580859e-05   7.5687453e-06   6.4776686e-05  -1.2600089e-05   1.3684617e-04   8.2112731e-05   4.6931534e-05   3.3309717e-05   0.0000000e+00  -3.6639773e-05   1.1772950e-04   0.0000000e+00   0.0000000e+00   4.5909085e-05   0.0000000e+00   2.7082459e-05   4.9924932e-05  -1.1038041e-03  -2.2496766e-04  -6.5543396e-05   0.0000000e+00  -4.8583854e-05  -2.3121049e-04  -3.5002353e-07   1.0356865e-04  -1.0636015e-07  -1.6456935e-04   0.0000000e+00  -3.7075726e-04   6.1791444e-05   8.3698713e-05   8.3897420e-05   5.3900929e-05  -4.7147230e-05   0.0000000e+00  -3.6223949e-04  -4.6322218e-04  -3.1018849e-04  -2.5222639e-04  -1.1891172e-04  -2.5808058e-04  -1.0470424e-04  -3.5432168e-04  -3.1215435e-04  -2.4672509e-04  -1.7566485e-04   0.0000000e+00  -8.6552742e-05  -3.5798471e-04   0.0000000e+00   0.0000000e+00  -1.4969843e-04   0.0000000e+00   8.4250343e-05  -1.7888248e-04  -8.1688444e-06   1.3610001e-04  -2.5048967e-05   0.0000000e+00   1.5585061e-04   2.8069382e-05   3.1601951e-04   1.4734076e-04   1.1693144e-04   1.0058150e-04   0.0000000e+00   5.1495629e-05  -9.1719858e-05   1.7481536e-04   2.7449816e-04   4.3713423e-04   2.2709928e-04   0.0000000e+00   6.5233931e-05   9.7114803e-05   5.0017321e-06   2.0242684e-04  -1.0675875e-04   3.9448253e-04   1.3448538e-06   1.2628944e-04   9.9849861e-05   1.9904993e-04   2.2213364e-04   0.0000000e+00   1.1175161e-03  -1.8985276e-04   0.0000000e+00   0.0000000e+00   7.3224476e-05   0.0000000e+00   4.3610335e-04   3.0206855e-04  -6.5585338e-05  -5.8956006e-04  -9.9098750e-05   0.0000000e+00  -3.1353893e-04  -1.8682065e-04   1.3870238e-04   6.7901654e-05   2.7751270e-04  -2.5740257e-04   0.0000000e+00  -2.8548930e-04  -2.0843343e-04   1.7638255e-04   2.7505635e-04   2.6736378e-04   6.6320577e-05   0.0000000e+00  -2.9786872e-04  -4.4777945e-04  -2.9910689e-04  -4.9868234e-04  -4.5668052e-04  -4.9366403e-04  -2.1240055e-04  -3.3584430e-04  -2.1755606e-04  -2.4333922e-04  -1.9387672e-04   0.0000000e+00   1.0228469e-04  -2.9580391e-04   0.0000000e+00   0.0000000e+00  -2.5193558e-04   0.0000000e+00   6.7034670e-04  -4.1197634e-04  -6.7940463e-04  -6.5453899e-04  -1.2900600e-04   0.0000000e+00  -7.7395782e-06  -1.0665535e-04  -4.3118264e-04   1.1003391e-04  -3.3919578e-04  -2.2755730e-05   0.0000000e+00  -1.4861850e-04  -8.2213115e-05  -1.3170246e-04  -1.7560927e-04  -2.5712482e-04  -1.3253478e-04   0.0000000e+00  -4.2510633e-05  -2.1289034e-05  -7.1821492e-05  -2.0048783e-04  -4.1002059e-05  -2.8636820e-04  -6.0218155e-05  -3.5529326e-05  -8.8278746e-05  -1.0647639e-04  -6.5541154e-05   0.0000000e+00  -6.0985375e-04   3.9419763e-05   0.0000000e+00   0.0000000e+00  -3.5577336e-05   0.0000000e+00  -3.9032717e-04  -1.1010858e-04   6.8372289e-05   7.7957482e-05   5.8951612e-05   0.0000000e+00  -8.4405013e-06   1.9846564e-04  -2.8276196e-04  -1.6722634e-05   1.2671747e-04   1.2258660e-04   0.0000000e+00   2.1352993e-04  -9.3912526e-05  -1.2729841e-05   6.0161559e-05  -2.4324679e-05  -2.8694132e-05   0.0000000e+00   2.0416720e-04   4.1687371e-04   3.4606308e-04   1.6051020e-04   2.2718105e-04   3.1887534e-04   8.6967534e-05   2.6665610e-04   2.1028256e-04   1.7008674e-04   3.1123373e-04   0.0000000e+00   2.4527668e-04   5.7307323e-04   0.0000000e+00   0.0000000e+00   2.1581756e-04   0.0000000e+00  -7.5951125e-05  -1.6309719e-04
  -1.0060967e-04  -7.8383520e-05  -2.8418703e-05   0.0000000e+00  -6.6748901e-05  -1.0814330e-04   1.0665279e-04   4.9612247e-05   1.1553898e-04  -6.9496858e-05   0.0000000e+00  -9.8412548e-05   5.8844002e-05   8.1286676e-05   1.3864266e-04   1.0571630e-04  -6.2464847e-06   0.0000000e+00  -1.2379632e-04  -1.8965270e-04  -9.5472550e-05  -1.1948350e-04  -3.7082391e-05  -1.0649578e-04  -2.0339499e-05  -1.4711439e-04  -8.9658547e-05  -7.8240337e-05  -3.4065750e-05   0.0000000e+00   1.9517225e-04  -1.5318437e-04   0.0000000e+00   0.0000000e+00  -7.8990501e-05   0.0000000e+00   1.3985221e-04   3.8661653e-05  -4.8086968e-04  -1.9300598e-05   5.4759819e-05   0.0000000e+00   1.0192833e-05   2.4588852e-05  -5.6421489e-05   5.5900770e-05  -6.1739522e-05  -4.5642165e-05   0.0000000e+00  -8.4412622e-05  -1.2993604e-04  -3.2605935e-05  -1.5786145e-05   3.1218960e-05   1.9180089e-05   0.0000000e+00  -7.5789967e-05  -6.3024448e-05  -5.8389994e-06   3.7249997e-05  -3.5708366e-05   1.3936252e-04   7.2583681e-06  -8.9065529e-05   6.8281236e-05  -4.8336464e-05  -2.5051722e-05   0.0000000e+00  -1.6950276e-04  -5.8501765e-05   0.0000000e+00   0.0000000e+00   7.3213689e-05   0.0000000e+00  -1.6374768e-04  -1.9219337e-04   5.1810204e-04   1.7936115e-04  -3.0850221e-05   0.0000000e+00   2.6011039e-05  -2.9781346e-05  -1.4899530e-04  -7.6212990e-05  -1.1015299e-04   1.7270885e-04   0.0000000e+00  -4.2209855e-05  -2.1421460e-04  -1.0533800e-04  -1.4659112e-04  -1.1914368e-04  -9.7930873e-05   0.0000000e+00   8.1658100e-05  -1.2490991e-05  -7.7677954e-05  -1.0297153e-05  -3.6224802e-05   4.4427993e-06   5.2813459e-05   4.1704431e-05   1.4703709e-04   2.3580849e-04   3.6474956e-05   0.0000000e+00   1.7910257e-05   3.5758218e-05   0.0000000e+00   0.0000000e+00   1.7051775e-04   0.0000000e+00   7.4557589e-05   3.2744294e-04  -2.3268705e-04  -1.4366093e-04  -1.1741548e-05   0.0000000e+00  -7.7233725e-05  -1.1361346e-05   2.2451933e-05   2.3616735e-05  -1.6066970e-05   4.6419973e-05   0.0000000e+00  -5.6843196e-05   6.7512643e-05   1.0867877e-05  -3.5517478e-05  -6.9481041e-06   3.7585866e-06   0.0000000e+00  -5.0314397e-05  -8.1932442e-05  -5.3484045e-05  -6.2284194e-05   6.3122085e-06   1.9447581e-05  -1.2569342e-04  -5.8058144e-05  -1.2810407e-05  -1.6085433e-05  -1.8319082e-05   0.0000000e+00   4.7132964e-05  -7.3585049e-05   0.0000000e+00   0.0000000e+00  -1.8518315e-05   0.0000000e+00  -3.6763418e-07   2.4060389e-05  -4.6511339e-04  -3.5401017e-04  -6.2125994e-05   0.0000000e+00  -8.4061199e-05  -1.1010739e-04   8.0351945e-05  -6.8369294e-05  -1.3031212e-04  -1.0889163e-04   0.0000000e+00  -1.7400405e-04   1.2457949e-04   8.6666416e-06  -1.4887652e-04  -2.3533445e-04  -8.5898825e-05   0.0000000e+00  -1.3018005e-04  -1.8171401e-04  -1.3235770e-04  -1.8835413e-04  -8.3416612e-05  -2.4735503e-04  -4.4920801e-05  -2.2109175e-04  -1.6948738e-04  -1.6133508e-04  -1.2194959e-04   0.0000000e+00  -2.5108131e-04  -1.4045904e-04   0.0000000e+00   0.0000000e+00  -5.1583037e-05   0.0000000e+00  -2.0431575e-04   5.2686558e-05  -1.4419958e-04   1.1361811e-04   4.0692356e-05   0.0000000e+00   1.2785304e-05   1.2200418e-05  -6.9693380e-05  -3.7568277e-05  -5.4235739e-05   2.8014494e-05   0.0000000e+00   8.2641847e-05  -6.8793818e-05  -8.3123062e-05  -8.4908261e-05  -5.2695938e-05  -2.5357450e-05   0.0000000e+00   4.3597016e-05   1.0490818e-04   7.6043289e-05   4.4322664e-05   6.5514540e-06   7.1164994e-05  -1.1550731e-05   1.4773762e-04   8.8916799e-05   5.7757176e-05   3.8981681e-05   0.0000000e+00  -3.5159557e-05   1.2955447e-04   0.0000000e+00   0.0000000e+00   5.6464469e-05   0.0000000e+00   3.8792808e-05   4.2456452e-05  -1.0834227e-03  -2.2543051e-04  -6.6465865e-05   0.0000000e+00  -5.0099753e-05  -2.3072823e-04  -1.7241800e-06   1.0987096e-04   2.0042449e-05  -1.6321965e-04   0.0000000e+00  -3.7221381e-04   6.0128318e-05   8.8726624e-05   1.0091645e-04   7.4576590e-05  -3.5811989e-05   0.0000000e+00  -3.5980864e-04  -4.5546889e-04  -3.1159238e-04  -2.4642939e-04  -1.1982930e-04  -2.5383580e-04  -1.0585008e-04  -3.5248109e-04  -3.1602291e-04  -2.4804322e-04  -1.7755826e-04   0.0000000e+00  -7.2955933e-05  -3.5803135e-04   0.0000000e+00   0.0000000e+00  -1.5077801e-04   0.0000000e+00   9.8987699e-05  -1.9349752e-04   5.7502856e-06   1.4178283e-04  -9.7956978e-06   0.0000000e+00   1.6514263e-04   3.8771438e-05   3.6020221e-04   1.6669063e-04   1.2292289e-04   1.1520068e-04   0.0000000e+00   6.6976513e-05  -7.1735918e-05   2.1073678e-04   2.6584865e-04   4.2743830e-04   2.2156284e-04   0.0000000e+00   7.4995693e-05   1.0874843e-04   6.5498743e-06   2.0637237e-04  -1.0979033e-04   4.0495607e-04  -1.8105071e-06   1.3429904e-04   1.0455214e-04   2.0562726e-04   2.4094272e-04   0.0000000e+00   1.1716742e-03  -1.7835891e-04   0.0000000e+00   0.0000000e+00   7.9352135e-05   0.0000000e+00   4.6014957e-04   3.3176185e-04  -7.2698169e-05  -7.2192730e-04  -1.3982956e-04   0.0000000e+00  -3.6900708e-04  -2.1960752e-04   8.3803520e-05   3.0574631e-05   2.0942750e-04  -2.8434323e-04   0.0000000e+00  -3.3076354e-04  -2.6723737e-04   1.4178666e-04   2.3289472e-04   1.9229420e-04   2.5663043e-05   0.0000000e+00  -3.2799686e-04  -5.0154281e-04  -3.5391333e-04  -5.5217551e-04  -4.8870525e-04  -5.6824464e-04  -2.5752273e-04  -3.8768432e-04  -2.5447579e-04  -2.7583953e-04  -2.3073895e-04   0.0000000e+00   4.9755423e-07  -3.3633085e-04   0.0000000e+00   0.0000000e+00  -2.8689125e-04   0.0000000e+00   6.1875547e-04  -4.6199184e-04  -6.3042787e-04  -6.3174502e-04  -1.3076900e-04   0.0000000e+00  -1.3877208e-05  -1.0245019e-04  -4.1915838e-04   1.0871260e-04  -3.3025589e-04  -2.7539715e-05   0.0000000e+00  -1.3498933e-04  -8.3613048e-05  -1.1692114e-04  -1.5925766e-04  -2.4585283e-04  -1.2611449e-04   0.0000000e+00  -2.9529120e-05   5.3237923e-06  -5.7637638e-05  -1.9220130e-04  -4.1928653e-05  -2.8019866e-04  -5.7673798e-05  -2.3726938e-05  -8.3452413e-05  -1.0273975e-04  -7.6310475e-05   0.0000000e+00  -6.2654041e-04   5.5422844e-05   0.0000000e+00   0.0000000e+00  -3.1886905e-05   0.0000000e+00  -3.7430086e-04  -1.0567156e-04   6.4268853e-05   7.7127361e-05   7.5827546e-05   0.0000000e+00   3.1252474e-05   1.9825208e-04  -2.8923542e-04  -2.7688581e-05   1.2881146e-04   1.1323514e-04   0.0000000e+00   1.8538271e-04  -1.0894288e-04  -2.0176253e-05   5.9207100e-05   2.1967571e-06  -1.4974048e-05   0.0000000e+00   1.7887176e-04   3.9120140e-04   3.3655422e-04   1.6938881e-04   2.3930928e-04   3.4117801e-04   9.5664595e-05   2.4502699e-04   2.1200312e-04   1.6082676e-04   3.2325018e-04   0.0000000e+00   2.5506211e-04   5.6284951e-04   0.0000000e+00   0.0000000e+00   2.3516465e-04   0.0000000e+00  -7.0105861e-05  -1.6221599e-04
  -1.1739202e-04  -8.9428716e-05  -3.0437105e-05   0.0000000e+00  -7.2537230e-05  -1.1326206e-04   1.1128880e-04   5.6817688e-05   1.1303933e-04  -7.2935728e-05   0.0000000e+00  -1.0211921e-04   6.6036606e-05   8.5447864e-05   1.4326398e-04   1.0715384e-04  -2.9539947e-06   0.0000000e+00  -1.2979191e-04  -1.9685676e-04  -9.9780971e-05  -1.2902959e-04  -4.1612986e-05  -1.1677198e-04  -2.3310628e-05  -1.5087272e-04  -9.1787688e-05  -8.2821632e-05  -4.0714514e-05   0.0000000e+00   1.8660120e-04  -1.5825042e-04   0.0000000e+00   0.0000000e+00  -8.2342131e-05   0.0000000e+00   1.3914796e-04   3.8224539e-05  -5.0404050e-04  -2.4821356e-05   3.4045981e-05   0.0000000e+00  -1.7031433e-06   1.7741755e-05  -7.3287665e-05   4.6354361e-05  -6.3178241e-05  -5.6066154e-05   0.0000000e+00  -9.5762406e-05  -1.6140672e-04  -3.9897676e-05  -4.8752790e-06   3.9006562e-05   1.5762922e-05   0.0000000e+00  -8.0609173e-05  -6.7986708e-05  -7.9310500e-06   2.6263068e-05  -4.7386552e-05   1.3942742e-04   5.9205002e-06  -9.7816019e-05   6.7937510e-05  -5.3939601e-05  -4.4441189e-05   0.0000000e+00  -1.8787720e-04  -7.1090256e-05   0.0000000e+00   0.0000000e+00   6.2209375e-05   0.0000000e+00  -1.7935063e-04  -2.0520040e-04   5.2046911e-04   1.3585384e-04  -5.0053758e-05   0.0000000e+00   1.4197984e-05  -5.5082983e-05  -1.8570451e-04  -7.7028974e-05  -1.2958035e-04   1.7044806e-04   0.0000000e+00  -6.4634036e-05  -2.3414691e-04  -1.1991305e-04  -1.5103335e-04  -1.3061679e-04  -1.1796740e-04   0.0000000e+00   9.0805376e-05  -1.3846414e-05  -9.3839071e-05  -6.9584727e-05  -5.9480741e-05  -4.8656166e-05   4.5439669e-05   5.4892104e-05   1.4536181e-04   2.3065490e-04   3.2692859e-05   0.0000000e+00  -3.8450096e-05   7.2219234e-05   0.0000000e+00   0.0000000e+00   1.6062737e-04   0.0000000e+00   3.6041027e-05   3.4259870e-04  -2.0368826e-04  -1.4173639e-04  -1.8603501e-05   0.0000000e+00  -8.4084443e-05  -1.2181726e-05   1.7151014e-05   1.9377300e-05  -2.0437996e-05   4.3809422e-05   0.0000000e+00  -5.8922537e-05   6.2244708e-05   7.8187207e-06  -4.0764265e-05  -9.2379594e-06   2.9848474e-06   0.0000000e+00  -5.1830033e-05  -8.4108968e-05  -5.5403059e-05  -6.9723995e-05   4.6403763e-06   1.1955139e-05  -1.3012678e-04  -6.3773028e-05  -1.7079199e-05  -2.3379518e-05  -3.1354494e-05   0.0000000e+00   3.0765161e-05  -7.1332183e-05   0.0000000e+00   0.0000000e+00  -2.6942165e-05   0.0000000e+00  -1.6371418e-05   1.7614047e-05  -4.1969741e-04  -3.3879731e-04  -5.6497666e-05   0.0000000e+00  -8.0480384e-05  -1.0381850e-04   7.5625820e-05  -7.3162043e-05  -1.3301681e-04  -1.0452812e-04   0.0000000e+00  -1.7065893e-04   1.3410868e-04   1.0386422e-06  -1.6447948e-04  -2.4659521e-04  -8.8064259e-05   0.0000000e+00  -1.2540064e-04  -1.7646668e-04  -1.3586607e-04  -1.8260707e-04  -7.4711864e-05  -2.4090755e-04  -4.2010320e-05  -2.1072946e-04  -1.6874874e-04  -1.5778600e-04  -1.2207234e-04   0.0000000e+00  -2.7694582e-04  -1.3137547e-04   0.0000000e+00   0.0000000e+00  -4.4277124e-05   0.0000000e+00  -2.2523517e-04   6.2384035e-05  -1.1082621e-04   1.3133200e-04   4.2377668e-05   0.0000000e+00   1.8296593e-05   1.5985076e-05  -8.3540829e-05  -3.9578906e-05  -6.1763458e-05   2.4211568e-05   0.0000000e+00   8.7673596e-05  -7.2398921e-05  -9.4182091e-05  -9.6298868e-05  -4.3605757e-05  -2.3748182e-05   0.0000000e+00   5.1801516e-05   1.1806844e-04   8.3716061e-05   5.9190396e-05   6.4705418e-06   7.6077110e-05  -9.6563724e-06   1.5705198e-04   9.5065079e-05   6.8303589e-05   4.4663759e-05   0.0000000e+00  -3.5612345e-05   1.4077907e-04   0.0000000e+00   0.0000000e+00   6.7355336e-05   0.0000000e+00   4.7786841e-05   3.4416578e-05  -1.0485963e-03  -2.2186823e-04  -6.7175519e-05   0.0000000e+00  -5.2344297e-05  -2.2824707e-04  -2.5184509e-06   1.1537084e-04   4.0595317e-05  -1.6092443e-04   0.0000000e+00  -3.7029404e-04   5.8146370e-05   9.3635738e-05   1.1820631e-04   9.6179417e-05  -2.2957860e-05   0.0000000e+00  -3.5450414e-04  -4.4343468e-04  -3.0999523e-04  -2.3774220e-04  -1.1975499e-04  -2.4618018e-04  -1.0578739e-04  -3.4788591e-04  -3.1658862e-04  -2.4720687e-04  -1.7860140e-04   0.0000000e+00  -5.8123081e-05  -3.5576369e-04   0.0000000e+00   0.0000000e+00  -1.5068382e-04   0.0000000e+00   1.1284754e-04  -2.0419388e-04   1.8846076e-05   1.4427672e-04   5.7537870e-06   0.0000000e+00   1.7175883e-04   4.9143549e-05   4.0128195e-04   1.8150383e-04   1.2176769e-04   1.2859188e-04   0.0000000e+00   8.0906581e-05  -4.7486026e-05   2.4182521e-04   2.4890199e-04   4.0897380e-04   2.1147567e-04   0.0000000e+00   8.2475989e-05   1.1568065e-04   5.0143260e-06   2.0577649e-04  -1.1310099e-04   4.0903112e-04  -5.0576227e-06   1.3967463e-04   1.0743146e-04   2.0986005e-04   2.5678362e-04   0.0000000e+00   1.2033005e-03  -1.6623975e-04   0.0000000e+00   0.0000000e+00   8.4901459e-05   0.0000000e+00   4.7772539e-04   3.6188235e-04  -7.8613151e-05  -8.4937668e-04  -1.8054700e-04   0.0000000e+00  -4.2283329e-04  -2.5045395e-04   2.3725283e-05  -1.0080499e-05   1.4034156e-04  -3.1055194e-04   0.0000000e+00  -3.7237085e-04  -3.2256760e-04   1.0482702e-04   1.8998198e-04   1.1970226e-04  -1.3807692e-05   0.0000000e+00  -3.5444461e-04  -5.4746282e-04  -4.0438190e-04  -6.0073937e-04  -5.1407953e-04  -6.3658347e-04  -3.0029552e-04  -4.3161558e-04  -2.8729831e-04  -3.0449714e-04  -2.6430696e-04   0.0000000e+00  -1.0128222e-04  -3.6852272e-04   0.0000000e+00   0.0000000e+00  -3.1916833e-04   0.0000000e+00   5.6562528e-04  -5.1557636e-04  -5.8134758e-04  -6.0597114e-04  -1.2923390e-04   0.0000000e+00  -1.6326272e-05  -9.5740303e-05  -4.0493900e-04   1.0301342e-04  -3.1315875e-04  -3.2806516e-05   0.0000000e+00  -1.2045986e-04  -8.4613271e-05  -9.9302841e-05  -1.3770084e-04  -2.2606678e-04  -1.1551037e-04   0.0000000e+00  -1.4766716e-05   3.4379164e-05  -4.0371800e-05  -1.8007804e-04  -4.0491118e-05  -2.7294739e-04  -5.3450445e-05  -1.2681765e-05  -7.7881999e-05  -9.9076029e-05  -8.7066985e-05   0.0000000e+00  -6.4122628e-04   7.1254477e-05   0.0000000e+00   0.0000000e+00  -2.7047420e-05   0.0000000e+00  -3.5448793e-04  -1.0601935e-04   6.5005238e-05   7.9480886e-05   8.6150842e-05   0.0000000e+00   6.1505109e-05   1.9076717e-04  -2.9722851e-04  -3.7149192e-05   1.2683759e-04   1.0456721e-04   0.0000000e+00   1.5465169e-04  -1.2205068e-04  -2.7951348e-05   5.8471423e-05   2.5074673e-05  -4.3244399e-06   0.0000000e+00   1.5290962e-04   3.6277192e-04   3.2278095e-04   1.7343152e-04   2.4876739e-04   3.5940591e-04   1.0327060e-04   2.2175740e-04   2.1051028e-04   1.4877484e-04   3.3259370e-04   0.0000000e+00   2.6011739e-04   5.5163444e-04   0.0000000e+00   0.0000000e+00   2.4897040e-04   0.0000000e+00  -6.9424453e-05  -1.6576658e-04
  -1.3344205e-04  -1.0038336e-04  -3.2629637e-05   0.0000000e+00  -7.7756743e-05  -1.1730610e-04   1.1336708e-04   6.3284351e-05   1.0778756e-04  -7.5622701e-05   0.0000000e+00  -1.0518421e-04   7.1376517e-05   8.7857359e-05   1.4567289e-04   1.0652412e-04  -2.6162649e-07   0.0000000e+00  -1.3426922e-04  -2.0164631e-04  -1.0286220e-04  -1.3784789e-04  -4.5796513e-05  -1.2697856e-04  -2.6439471e-05  -1.5311639e-04  -9.3312984e-05  -8.7107083e-05  -4.7574779e-05   0.0000000e+00   1.7373597e-04  -1.6185552e-04   0.0000000e+00   0.0000000e+00  -8.4844617e-05   0.0000000e+00   1.3604586e-04   3.7451967e-05  -4.9655226e-04  -3.0838698e-05   1.0473274e-05   0.0000000e+00  -1.5402301e-05   8.7985646e-06  -9.2337966e-05   3.2871890e-05  -6.2045563e-05  -6.8392320e-05   0.0000000e+00  -1.0829094e-04  -1.9381873e-04  -4.8655151e-05   9.9899657e-06   4.9032126e-05   1.1814044e-05   0.0000000e+00  -8.6085600e-05  -7.3492200e-05  -1.1281607e-05   1.1994072e-05  -6.0543076e-05   1.3192809e-04   4.7110358e-06  -1.0791834e-04   6.6095047e-05  -6.1313335e-05  -6.7615532e-05   0.0000000e+00  -2.1065265e-04  -8.3980936e-05   0.0000000e+00   0.0000000e+00   4.8063943e-05   0.0000000e+00  -1.9628180e-04  -2.1806434e-04   5.0797024e-04   7.8013409e-05  -7.0305760e-05   0.0000000e+00   1.3138342e-06  -7.8964747e-05  -2.2769802e-04  -7.7109257e-05  -1.4597728e-04   1.6825482e-04   0.0000000e+00  -8.2702000e-05  -2.5693603e-04  -1.3230636e-04  -1.5206313e-04  -1.3973636e-04  -1.3552362e-04   0.0000000e+00   1.0383366e-04  -1.0458030e-05  -1.0769984e-04  -1.3718719e-04  -8.5740938e-05  -1.0544610e-04   3.7344016e-05   7.1286699e-05   1.4399579e-04   2.2522687e-04   3.0096310e-05   0.0000000e+00  -9.7124932e-05   1.1559456e-04   0.0000000e+00   0.0000000e+00   1.4950291e-04   0.0000000e+00  -4.5921188e-06   3.4881825e-04  -1.7144283e-04  -1.3748724e-04  -2.5318240e-05   0.0000000e+00  -9.0132209e-05  -1.2583881e-05   1.1080514e-05   1.4705024e-05  -2.3924584e-05   4.0901443e-05   0.0000000e+00  -6.0600644e-05   5.6777513e-05   5.3129341e-06  -4.5390921e-05  -1.1878487e-05   2.6893597e-06   0.0000000e+00  -5.2705069e-05  -8.5545233e-05  -5.6335114e-05  -7.7043086e-05   3.2816128e-06   2.9143818e-06  -1.3345632e-04  -6.9534642e-05  -2.1708225e-05  -3.1071975e-05  -4.4696828e-05   0.0000000e+00   1.2951523e-05  -6.8869769e-05   0.0000000e+00   0.0000000e+00  -3.5397263e-05   0.0000000e+00  -3.2015706e-05   1.0181089e-05  -3.6948533e-04  -3.1696352e-04  -5.0986969e-05   0.0000000e+00  -7.5687622e-05  -9.5990947e-05   7.1289417e-05  -8.0747161e-05  -1.3444447e-04  -9.9015514e-05   0.0000000e+00  -1.6436803e-04   1.4205539e-04  -5.0012284e-06  -1.7812702e-04  -2.5590180e-04  -8.9312943e-05   0.0000000e+00  -1.1801905e-04  -1.6808665e-04  -1.3655919e-04  -1.7366441e-04  -6.4982715e-05  -2.3111386e-04  -3.7627756e-05  -1.9620241e-04  -1.6496433e-04  -1.5163093e-04  -1.2159598e-04   0.0000000e+00  -3.0200576e-04  -1.2056336e-04   0.0000000e+00   0.0000000e+00  -3.6476327e-05   0.0000000e+00  -2.4189336e-04   7.4444098e-05  -7.0602035e-05   1.4697633e-04   4.4799677e-05   0.0000000e+00   2.5779444e-05   2.0361268e-05  -9.9268925e-05  -4.1615619e-05  -6.9373638e-05   2.0759079e-05   0.0000000e+00   9.1880822e-05  -7.6420019e-05  -1.0643111e-04  -1.0750514e-04  -3.5039188e-05  -2.2413181e-05   0.0000000e+00   5.9771539e-05   1.3031864e-04   9.0913785e-05   7.3668145e-05   7.3472215e-06   7.9287578e-05  -7.0061134e-06   1.6464539e-04   1.0047372e-04   7.8271975e-05   5.0213244e-05   0.0000000e+00  -3.8276881e-05   1.5112724e-04   0.0000000e+00   0.0000000e+00   7.8259130e-05   0.0000000e+00   5.3581728e-05   2.6412864e-05  -1.0026966e-03  -2.1460963e-04  -6.7605707e-05   0.0000000e+00  -5.5071359e-05  -2.2401999e-04  -3.0632759e-06   1.2000076e-04   6.0595463e-05  -1.5791815e-04   0.0000000e+00  -3.6542220e-04   5.5671387e-05   9.8117847e-05   1.3501307e-04   1.1801035e-04  -9.0968208e-06   0.0000000e+00  -3.4680661e-04  -4.2796461e-04  -3.0574428e-04  -2.2642963e-04  -1.1880397e-04  -2.3552643e-04  -1.0455794e-04  -3.4095307e-04  -3.1402888e-04  -2.4443265e-04  -1.7891062e-04   0.0000000e+00  -4.2864236e-05  -3.5149011e-04   0.0000000e+00   0.0000000e+00  -1.4933788e-04   0.0000000e+00   1.2512849e-04  -2.1034166e-04   3.0370113e-05   1.4347894e-04   2.0788865e-05   0.0000000e+00   1.7558680e-04   5.8890358e-05   4.3714834e-04   1.9075788e-04   1.1231013e-04   1.4051749e-04   0.0000000e+00   9.2741882e-05  -1.9785522e-05   2.6624694e-04   2.2365670e-04   3.8189121e-04   1.9712637e-04   0.0000000e+00   8.7631002e-05   1.1786279e-04   4.9819520e-07   2.0088361e-04  -1.1678881e-04   4.0699451e-04  -8.3204749e-06   1.4240890e-04   1.0856853e-04   2.1193440e-04   2.6911024e-04   0.0000000e+00   1.2097869e-03  -1.5400673e-04   0.0000000e+00   0.0000000e+00   8.9811348e-05   0.0000000e+00   4.8775232e-04   3.9157332e-04  -8.2913795e-05  -9.6657612e-04  -2.1963421e-04   0.0000000e+00  -4.7268768e-04  -2.7784365e-04  -4.0002865e-05  -5.2731042e-05   7.3486094e-05  -3.3519412e-04   0.0000000e+00  -4.0822994e-04  -3.7307787e-04   6.6264501e-05   1.4848689e-04   5.2966151e-05  -5.0329984e-05   0.0000000e+00  -3.7566721e-04  -5.8322789e-04  -4.4817564e-04  -6.4205813e-04  -5.3173465e-04  -6.9591200e-04  -3.3870779e-04  -4.6519769e-04  -3.1417301e-04  -3.2773882e-04  -2.9323236e-04   0.0000000e+00  -1.9942859e-04  -3.9050217e-04   0.0000000e+00   0.0000000e+00  -3.4717998e-04   0.0000000e+00   5.1315125e-04  -5.7054780e-04  -5.3608349e-04  -5.7963047e-04  -1.2408106e-04   0.0000000e+00  -1.4394938e-05  -8.6521325e-05  -3.8936019e-04   9.3893692e-05  -2.8782175e-04  -3.7794774e-05   0.0000000e+00  -1.0575649e-04  -8.5910808e-05  -7.9418469e-05  -1.1135186e-04  -1.9810757e-04  -1.0090480e-04   0.0000000e+00   1.1416564e-06   6.4801671e-05  -2.0642188e-05  -1.6463575e-04  -3.6413172e-05  -2.6489665e-04  -4.7610283e-05  -2.9939186e-06  -7.1676372e-05  -9.5758042e-05  -9.6970091e-05   0.0000000e+00  -6.5339448e-04   8.6394094e-05   0.0000000e+00   0.0000000e+00  -2.1140789e-05   0.0000000e+00  -3.3196578e-04  -1.1222714e-04   6.9915651e-05   8.4226178e-05   8.9063544e-05   0.0000000e+00   8.0270819e-05   1.7579738e-04  -3.0689067e-04  -4.4730847e-05   1.2073142e-04   9.6561535e-05   0.0000000e+00   1.2246187e-04  -1.3280023e-04  -3.5924664e-05   5.8181149e-05   4.3031709e-05   2.3017747e-06   0.0000000e+00   1.2694574e-04   3.3202755e-04   3.0510516e-04   1.7189923e-04   2.5520990e-04   3.7244578e-04   1.0944995e-04   1.9741997e-04   2.0556257e-04   1.3406961e-04   3.3911441e-04   0.0000000e+00   2.6016305e-04   5.4005451e-04   0.0000000e+00   0.0000000e+00   2.5666533e-04   0.0000000e+00  -7.4349083e-05  -1.7519367e-04
  -1.4803229e-04  -1.1097376e-04  -3.4953734e-05   0.0000000e+00  -8.2311339e-05  -1.2022229e-04   1.1286239e-04   6.8850146e-05   9.9975776e-05  -7.7477135e-05   0.0000000e+00  -1.0756374e-04   7.4553267e-05   8.8515287e-05   1.4581146e-04   1.0381550e-04   1.7212735e-06   0.0000000e+00  -1.3712456e-04  -2.0387659e-04  -1.0466256e-04  -1.4565970e-04  -4.9580394e-05  -1.3673005e-04  -2.9698033e-05  -1.5378553e-04  -9.4220817e-05  -9.0999593e-05  -5.4439578e-05   0.0000000e+00   1.5689274e-04  -1.6394021e-04   0.0000000e+00   0.0000000e+00  -8.6433644e-05   0.0000000e+00   1.3063789e-04   3.6116394e-05  -4.6006446e-04  -3.8153299e-05  -1.4583995e-05   0.0000000e+00  -3.0076164e-05  -1.8393147e-06  -1.1307902e-04   1.5931175e-05  -5.8339505e-05  -8.2321204e-05   0.0000000e+00  -1.2182014e-04  -2.2605413e-04  -5.8933466e-05   2.8466201e-05   6.1844818e-05   7.7163729e-06   0.0000000e+00  -9.2252127e-05  -7.9610002e-05  -1.5968322e-05  -4.4496273e-06  -7.4665923e-05   1.1754400e-04   3.7391122e-06  -1.1927357e-04   6.2952632e-05  -7.0113903e-05  -9.3417263e-05   0.0000000e+00  -2.3650052e-04  -9.6934783e-05   0.0000000e+00   0.0000000e+00   3.1873493e-05   0.0000000e+00  -2.1384913e-04  -2.3070897e-04   4.8149850e-04   7.7866231e-06  -9.0512855e-05   0.0000000e+00  -1.1750613e-05  -1.0035675e-04  -2.7349913e-04  -7.6674970e-05  -1.5850074e-04   1.6672970e-04   0.0000000e+00  -9.5787504e-05  -2.8219888e-04  -1.4171042e-04  -1.4980930e-04  -1.4579947e-04  -1.4969803e-04   0.0000000e+00   1.2032567e-04  -2.4900413e-06  -1.1861895e-04  -2.1060057e-04  -1.1409484e-04  -1.6372741e-04   2.8965693e-05   9.0404423e-05   1.4313083e-04   2.1990063e-04   2.8955436e-05   0.0000000e+00  -1.5521749e-04   1.6430355e-04   0.0000000e+00   0.0000000e+00   1.3810349e-04   0.0000000e+00  -4.5386965e-05   3.4607207e-04  -1.3706881e-04  -1.3140535e-04  -3.1844246e-05   0.0000000e+00  -9.5347546e-05  -1.2692610e-05   4.1968044e-06   9.8228442e-06  -2.6804744e-05   3.7839638e-05   0.0000000e+00  -6.2065168e-05   5.1375331e-05   3.3040711e-06  -4.9381312e-05  -1.5120910e-05   2.7127104e-06   0.0000000e+00  -5.3013930e-05  -8.6303273e-05  -5.6389886e-05  -8.4182608e-05   2.2983636e-06  -7.4473964e-06  -1.3568506e-04  -7.5175890e-05  -2.6637977e-05  -3.8946028e-05  -5.7923711e-05   0.0000000e+00  -5.9965972e-06  -6.6428182e-05   0.0000000e+00   0.0000000e+00  -4.3630506e-05   0.0000000e+00  -4.7073118e-05   2.1061216e-06  -3.1737900e-04  -2.8942756e-04  -4.5917928e-05   0.0000000e+00  -6.9808734e-05  -8.6836951e-05   6.6989568e-05  -9.1113041e-05  -1.3481698e-04  -9.2532209e-05   0.0000000e+00  -1.5546782e-04   1.4807041e-04  -9.4724640e-06  -1.8975373e-04  -2.6338230e-04  -8.9792776e-05   0.0000000e+00  -1.0819064e-04  -1.5672233e-04  -1.3433985e-04  -1.6177496e-04  -5.4482044e-05  -2.1830446e-04  -3.2004150e-05  -1.7801950e-04  -1.5832209e-04  -1.4311902e-04  -1.2039651e-04   0.0000000e+00  -3.2591112e-04  -1.0838251e-04   0.0000000e+00   0.0000000e+00  -2.8391917e-05   0.0000000e+00  -2.5408167e-04   8.7986912e-05  -2.5169224e-05   1.5993676e-04   4.8026627e-05   0.0000000e+00   3.5078257e-05   2.5224621e-05  -1.1647467e-04  -4.3819048e-05  -7.6951171e-05   1.7879820e-05   0.0000000e+00   9.5255320e-05  -8.0998077e-05  -1.1958711e-04  -1.1835713e-04  -2.7646095e-05  -2.1581305e-05   0.0000000e+00   6.7279060e-05   1.4137034e-04   9.7492418e-05   8.7288348e-05   9.1452632e-06   8.0700116e-05  -3.7522062e-06   1.7044571e-04   1.0508187e-04   8.7388525e-05   5.5508249e-05   0.0000000e+00  -4.3241567e-05   1.6034339e-04   0.0000000e+00   0.0000000e+00   8.8853693e-05   0.0000000e+00   5.5922132e-05   1.9035747e-05  -9.4953496e-04  -2.0420067e-04  -6.7693788e-05   0.0000000e+00  -5.7977540e-05  -2.1832495e-04  -3.7161066e-06   1.2371017e-04   7.9124937e-05  -1.5442083e-04   0.0000000e+00  -3.5809991e-04   5.2514204e-05   1.0185529e-04   1.5057580e-04   1.3933819e-04   5.2036168e-06   0.0000000e+00  -3.3721655e-04  -4.0996830e-04  -2.9926126e-04  -2.1285243e-04  -1.1711920e-04  -2.2240443e-04  -1.0224106e-04  -3.3212691e-04  -3.0861415e-04  -2.3997978e-04  -1.7856783e-04   0.0000000e+00  -2.7956253e-05  -3.4553398e-04   0.0000000e+00   0.0000000e+00  -1.4668944e-04   0.0000000e+00   1.3521047e-04  -2.1152862e-04   3.9671457e-05   1.3939510e-04   3.4478969e-05   0.0000000e+00   1.7664413e-04   6.7749759e-05   4.6582299e-04   1.9361234e-04   9.3837039e-05   1.5080108e-04   0.0000000e+00   1.0206703e-04   1.0384850e-05   2.8247784e-04   1.9051939e-04   3.4670358e-04   1.7896437e-04   0.0000000e+00   9.0557769e-05   1.1554959e-04  -6.7219029e-06   1.9214804e-04  -1.2089171e-04   3.9944974e-04  -1.1532211e-05   1.4264510e-04   1.0814444e-04   2.1213727e-04   2.7755304e-04   0.0000000e+00   1.1903647e-03  -1.4211807e-04   0.0000000e+00   0.0000000e+00   9.4043544e-05   0.0000000e+00   4.8947500e-04   4.1988050e-04  -8.4721987e-05  -1.0683912e-03  -2.5542339e-04   0.0000000e+00  -5.1622140e-04  -3.0027521e-04  -1.0546231e-04  -9.5826954e-05   1.1957195e-05  -3.5729852e-04   0.0000000e+00  -4.3628535e-04  -4.1753262e-04   2.7013402e-05   1.1045096e-04  -4.9654106e-06  -8.2244080e-05   0.0000000e+00  -3.9016062e-04  -6.0682630e-04  -4.8310635e-04  -6.7390587e-04  -5.4087698e-04  -7.4362741e-04  -3.7084570e-04  -4.8626761e-04  -3.3336304e-04  -3.4407085e-04  -3.1627025e-04   0.0000000e+00  -2.9048350e-04  -4.0079572e-04   0.0000000e+00   0.0000000e+00  -3.6938804e-04   0.0000000e+00   4.6328952e-04  -6.2432581e-04  -4.9816888e-04  -5.5497801e-04  -1.1521194e-04   0.0000000e+00  -7.7538390e-06  -7.4907675e-05  -3.7314328e-04   8.2595986e-05  -2.5442148e-04  -4.1708672e-05   0.0000000e+00  -9.1533619e-05  -8.8280071e-05  -5.7882951e-05  -8.0757724e-05  -1.6270068e-04  -8.2675453e-05   0.0000000e+00   1.7518574e-05   9.5448196e-05   8.0401586e-07  -1.4660161e-04  -2.9575769e-05  -2.5628642e-04  -4.0361747e-05   4.8835965e-06  -6.4927162e-05  -9.2979039e-05  -1.0517472e-04   0.0000000e+00  -6.6230062e-04   1.0038398e-04   0.0000000e+00   0.0000000e+00  -1.4306901e-05   0.0000000e+00  -3.0775495e-04  -1.2504753e-04   7.8026190e-05   9.0300730e-05   8.4168600e-05   0.0000000e+00   8.6196912e-05   1.5356122e-04  -3.1809216e-04  -5.0154172e-05   1.1078627e-04   8.9191239e-05   0.0000000e+00   9.0106372e-05  -1.4073954e-04  -4.3852946e-05   5.8606430e-05   5.5025444e-05   4.1513449e-06   0.0000000e+00   1.0161552e-04   2.9946230e-04   2.8404962e-04   1.6434463e-04   2.5839242e-04   3.7945133e-04   1.1394078e-04   1.7269498e-04   1.9707268e-04   1.1701030e-04   3.4279396e-04   0.0000000e+00   2.5508363e-04   5.2872172e-04   0.0000000e+00   0.0000000e+00   2.5800902e-04   0.0000000e+00  -8.4951159e-05  -1.9164504e-04
  -1.6049136e-04  -1.2092870e-04  -3.7359274e-05   0.0000000e+00  -8.6133636e-05  -1.2198354e-04   1.0983746e-04   7.3366718e-05   8.9935234e-05  -7.8456286e-05   0.0000000e+00  -1.0921621e-04   7.5320966e-05   8.7486000e-05   1.4373375e-04   9.9124722e-05   2.9329775e-06   0.0000000e+00  -1.3830554e-04  -2.0347374e-04  -1.0516268e-04  -1.5220128e-04  -5.2923063e-05  -1.4562231e-04  -3.3049201e-05  -1.5285667e-04  -9.4498085e-05  -9.4392194e-05  -6.1082323e-05   0.0000000e+00   1.3657824e-04  -1.6446021e-04   0.0000000e+00   0.0000000e+00  -8.7072419e-05   0.0000000e+00   1.2310581e-04   3.3957627e-05  -3.9868453e-04  -4.7515581e-05  -3.9639151e-05   0.0000000e+00  -4.4823440e-05  -1.3649901e-05  -1.3497045e-04  -3.7741199e-06  -5.2312415e-05  -9.7429203e-05   0.0000000e+00  -1.3610585e-04  -2.5703600e-04  -7.0743219e-05   4.9929284e-05   7.7894557e-05   3.8781739e-06   0.0000000e+00  -9.9069108e-05  -8.6366967e-05  -2.1986192e-05  -2.1751789e-05  -8.9149707e-05   9.7511393e-05   3.0623259e-06  -1.3169158e-04   5.8775374e-05  -7.9872846e-05  -1.2046647e-04   0.0000000e+00  -2.6381107e-04  -1.0972319e-04   0.0000000e+00   0.0000000e+00   1.4909155e-05   0.0000000e+00  -2.3129497e-04  -2.4303263e-04   4.4296485e-04  -7.2161541e-05  -1.0962666e-04   0.0000000e+00  -2.4093955e-05  -1.1838421e-04  -3.2142062e-04  -7.6003050e-05  -1.6653747e-04   1.6632873e-04   0.0000000e+00  -1.0362578e-04  -3.0931035e-04  -1.4735918e-04  -1.4457707e-04  -1.4819495e-04  -1.5984805e-04   0.0000000e+00   1.3960786e-04   9.6627288e-06  -1.2606687e-04  -2.8704341e-04  -1.4353388e-04  -2.2139021e-04   2.0769297e-05   1.1158765e-04   1.4289282e-04   2.1496061e-04   2.9307229e-05   0.0000000e+00  -2.1028304e-04   2.1647438e-04   0.0000000e+00   0.0000000e+00   1.2736038e-04   0.0000000e+00  -8.4644307e-05   3.3484299e-04  -1.0190278e-04  -1.2408139e-04  -3.8149625e-05   0.0000000e+00  -9.9731025e-05  -1.2647771e-05  -3.4957913e-06   4.9369183e-06  -2.9339043e-05   3.4761982e-05   0.0000000e+00  -6.3519100e-05   4.6279075e-05   1.6994645e-06  -5.2720380e-05  -1.9137982e-05   2.8772511e-06   0.0000000e+00  -5.2870068e-05  -8.6478415e-05  -5.5733211e-05  -9.1090343e-05   1.7396803e-06  -1.8853883e-05  -1.3684821e-04  -8.0535514e-05  -3.1800204e-05  -4.6781825e-05  -7.0626869e-05   0.0000000e+00  -2.5663853e-05  -6.4224057e-05   0.0000000e+00   0.0000000e+00  -5.1407929e-05   0.0000000e+00  -6.1327659e-05  -6.2336803e-06  -2.6601849e-04  -2.5735366e-04  -4.1544311e-05   0.0000000e+00  -6.2965154e-05  -7.6609001e-05   6.2319102e-05  -1.0405123e-04  -1.3442496e-04  -8.5250539e-05   0.0000000e+00  -1.4438721e-04   1.5195290e-04  -1.2533772e-05  -1.9943930e-04  -2.6927313e-04  -8.9691534e-05   0.0000000e+00  -9.6178921e-05  -1.4264014e-04  -1.2923129e-04  -1.4730957e-04  -4.3460283e-05  -2.0295037e-04  -2.5386169e-05  -1.5683562e-04  -1.4912015e-04  -1.3258245e-04  -1.1832488e-04   0.0000000e+00  -3.4826452e-04  -9.5222335e-05   0.0000000e+00   0.0000000e+00  -2.0218929e-05   0.0000000e+00  -2.6184820e-04   1.0204753e-04   2.3317349e-05   1.6973753e-04   5.2088347e-05   0.0000000e+00   4.5952744e-05   3.0438253e-05  -1.3465468e-04  -4.6302263e-05  -8.4328975e-05   1.5755882e-05   0.0000000e+00   9.7806007e-05  -8.6236678e-05  -1.3327608e-04  -1.2868043e-04  -2.1955794e-05  -2.1442458e-05   0.0000000e+00   7.4109385e-05   1.5097217e-04   1.0331821e-04   9.9651118e-05   1.1775473e-05   8.0360242e-05  -1.1068873e-07   1.7444808e-04   1.0885206e-04   9.5417106e-05   6.0449819e-05   0.0000000e+00  -5.0391945e-05   1.6820401e-04   0.0000000e+00   0.0000000e+00   9.8832841e-05   0.0000000e+00   5.4799136e-05   1.2814986e-05  -8.9307246e-04  -1.9136062e-04  -6.7389608e-05   0.0000000e+00  -6.0727897e-05  -2.1144859e-04  -4.8296979e-06   1.2647667e-04   9.5375082e-05  -1.5062633e-04   0.0000000e+00  -3.4887533e-04   4.8477706e-05   1.0455047e-04   1.6418329e-04   1.5944220e-04   1.9354181e-05   0.0000000e+00  -3.2622025e-04  -3.9036543e-04  -2.9101066e-04  -1.9744993e-04  -1.1486778e-04  -2.0742772e-04  -9.8947527e-05  -3.2185029e-04  -3.0069607e-04  -2.3413292e-04  -1.7761011e-04   0.0000000e+00  -1.4075539e-05  -3.3822032e-04   0.0000000e+00   0.0000000e+00  -1.4272602e-04   0.0000000e+00   1.4261492e-04  -2.0758553e-04   4.6263398e-05   1.3213623e-04   4.6028167e-05   0.0000000e+00   1.7506921e-04   7.5509665e-05   4.8563618e-04   1.8946927e-04   6.6129221e-05   1.5933229e-04   0.0000000e+00   1.0861567e-04   4.1947615e-05   2.8942875e-04   1.5027550e-04   3.0424345e-04   1.5756512e-04   0.0000000e+00   9.1483894e-05   1.0926019e-04  -1.6226481e-05   1.8019102e-04  -1.2537274e-04   3.8725251e-04  -1.4636494e-05   1.4066367e-04   1.0642614e-04   2.1083382e-04   2.8195017e-04   0.0000000e+00   1.1462092e-03  -1.3095437e-04   0.0000000e+00   0.0000000e+00   9.7581624e-05   0.0000000e+00   4.8252343e-04   4.4581442e-04  -8.2642344e-05  -1.1501314e-03  -2.8629496e-04   0.0000000e+00  -5.5121194e-04  -3.1634414e-04  -1.7043159e-04  -1.3767080e-04  -4.1453500e-05  -3.7580198e-04   0.0000000e+00  -4.5461887e-04  -4.5484544e-04  -1.1881808e-05   7.7654498e-05  -5.1706699e-05  -1.0808536e-04   0.0000000e+00  -3.9654206e-04  -6.1663847e-04  -5.0724675e-04  -6.9427342e-04  -5.4103163e-04  -7.7743436e-04  -3.9501188e-04  -4.9306472e-04  -3.4332789e-04  -3.5216758e-04  -3.3232535e-04   0.0000000e+00  -3.7127891e-04  -3.9839137e-04   0.0000000e+00   0.0000000e+00  -3.8439033e-04   0.0000000e+00   4.1768466e-04  -6.7414564e-04  -4.7052971e-04  -5.3395412e-04  -1.0277667e-04   0.0000000e+00   3.5062775e-06  -6.1145077e-05  -3.5685541e-04   7.0531994e-05  -2.1343526e-04  -4.3797270e-05   0.0000000e+00  -7.8334837e-05  -9.2512995e-05  -3.5334743e-05  -4.6583689e-05  -1.2093023e-04  -6.1388430e-05   0.0000000e+00   3.3692015e-05   1.2517387e-04   2.3131862e-05  -1.2687886e-04  -2.0038656e-05  -2.4731945e-04  -3.2065340e-05   1.0682823e-05  -5.7709792e-05  -9.0822987e-05  -1.1089306e-04   0.0000000e+00  -6.6701363e-04   1.1286033e-04   0.0000000e+00   0.0000000e+00  -6.7433992e-06   0.0000000e+00  -2.8274938e-04  -1.4482663e-04   8.8137239e-05   9.6464477e-05   7.1564608e-05   0.0000000e+00   7.8719927e-05   1.2471640e-04  -3.3040531e-04  -5.3257127e-05   9.7642883e-05   8.2448196e-05   0.0000000e+00   5.9009719e-05  -1.4541080e-04  -5.1373025e-05   6.0050047e-05   6.0328999e-05   7.3084448e-07   0.0000000e+00   7.7504536e-05   2.6564127e-04   2.6029042e-04   1.5066366e-04   2.5818462e-04   3.7991897e-04   1.1656669e-04   1.4836832e-04   1.8512279e-04   9.8063058e-05   3.4374847e-04   0.0000000e+00   2.4495819e-04   5.1824371e-04   0.0000000e+00   0.0000000e+00   2.5309774e-04   0.0000000e+00  -1.0092706e-04  -2.1585600e-04
  -1.7024923e-04  -1.2998533e-04  -3.9790910e-05   0.0000000e+00  -8.9184550e-05  -1.2259055e-04   1.0444012e-04   7.6706076e-05   7.8115487e-05  -7.8557132e-05   0.0000000e+00  -1.1010766e-04   7.3513873e-05   8.4889364e-05   1.3960123e-04   9.2657617e-05   3.3641928e-06   0.0000000e+00  -1.3781064e-04  -2.0043904e-04  -1.0437922e-04  -1.5723584e-04  -5.5792728e-05  -1.5325163e-04  -3.6444394e-05  -1.5034240e-04  -9.4128834e-05  -9.7170623e-05  -6.7265284e-05   0.0000000e+00   1.1347068e-04  -1.6339065e-04   0.0000000e+00   0.0000000e+00  -8.6750080e-05   0.0000000e+00   1.1371867e-04   3.0713847e-05  -3.1861413e-04  -5.9503956e-05  -6.3203489e-05   0.0000000e+00  -5.8747879e-05  -2.6032594e-05  -1.5744128e-04  -2.5382312e-05  -4.4464310e-05  -1.1317946e-04   0.0000000e+00  -1.5084724e-04  -2.8580376e-04  -8.4038884e-05   7.3500294e-05   9.7451224e-05   6.9710401e-07   0.0000000e+00  -1.0643078e-04  -9.3741182e-05  -2.9235285e-05  -3.8508638e-05  -1.0333414e-04   7.3510365e-05   2.6874613e-06  -1.4489370e-04   5.3870493e-05  -9.0036961e-05  -1.4726860e-04   0.0000000e+00  -2.9084535e-04  -1.2213619e-04   0.0000000e+00   0.0000000e+00  -1.4915082e-06   0.0000000e+00  -2.4786278e-04  -2.5490095e-04   3.9516298e-04  -1.5866592e-04  -1.2672476e-04   0.0000000e+00  -3.4899698e-05  -1.3244581e-04  -3.6970836e-04  -7.5409899e-05  -1.6973534e-04   1.6729943e-04   0.0000000e+00  -1.0633008e-04  -3.3745987e-04  -1.4857811e-04  -1.3684349e-04  -1.4644552e-04  -1.6562967e-04   0.0000000e+00   1.6079967e-04   2.5439479e-05  -1.2966135e-04  -3.6365362e-04  -1.7302529e-04  -2.7656518e-04   1.3214816e-05   1.3403747e-04   1.4331896e-04   2.1056232e-04   3.0935843e-05   0.0000000e+00  -2.6058441e-04   2.7006175e-04   0.0000000e+00   0.0000000e+00   1.1809042e-04   0.0000000e+00  -1.2108968e-04   3.1603651e-04  -6.7478613e-05  -1.1615444e-04  -4.4206003e-05   0.0000000e+00  -1.0330928e-04  -1.2591592e-05  -1.1934159e-05   2.2553058e-07  -3.1729756e-05   3.1793134e-05   0.0000000e+00  -6.5158492e-05   4.1695636e-05   3.7565288e-07  -5.5380945e-05  -2.3993067e-05   3.0027995e-06   0.0000000e+00  -5.2412597e-05  -8.6188944e-05  -5.4574713e-05  -9.7718043e-05   1.6400874e-06  -3.0995225e-05  -1.3700769e-04  -8.5466288e-05  -3.7122807e-05  -5.4368184e-05  -8.2438439e-05   0.0000000e+00  -4.5544857e-05  -6.2443626e-05   0.0000000e+00   0.0000000e+00  -5.8524335e-05   0.0000000e+00  -7.4562243e-05  -1.4440997e-05  -2.1761735e-04  -2.2209445e-04  -3.8030453e-05   0.0000000e+00  -5.5270785e-05  -6.5589566e-05   5.6860720e-05  -1.1916475e-04  -1.3363079e-04  -7.7328553e-05   0.0000000e+00  -1.3162091e-04   1.5367035e-04  -1.4459945e-05  -2.0740151e-04  -2.7390789e-04  -8.9223206e-05   0.0000000e+00  -8.2352084e-05  -1.2622478e-04  -1.2138114e-04  -1.3074845e-04  -3.2163726e-05  -1.8563570e-04  -1.8021857e-05  -1.3342278e-04  -1.3775552e-04  -1.2042063e-04  -1.1522405e-04   0.0000000e+00  -3.6863001e-04  -8.1487902e-05   0.0000000e+00   0.0000000e+00  -1.2131783e-05   0.0000000e+00  -2.6548170e-04   1.1565149e-04   7.2254938e-05   1.7606119e-04   5.6963785e-05   0.0000000e+00   5.8082846e-05   3.5840589e-05  -1.5323911e-04  -4.9141874e-05  -9.1285266e-05   1.4520987e-05   0.0000000e+00   9.9547847e-05  -9.2186433e-05  -1.4705696e-04  -1.3830050e-04  -1.8326836e-05  -2.2133847e-05   0.0000000e+00   8.0068243e-05   1.5891841e-04   1.0826892e-04   1.1043924e-04   1.5106317e-05   7.8451339e-05   3.6433180e-06   1.7671038e-04   1.1176413e-04   1.0216852e-04   6.4966825e-05   0.0000000e+00  -5.9417549e-05   1.7452666e-04   0.0000000e+00   0.0000000e+00   1.0791873e-04   0.0000000e+00   5.0451524e-05   8.1830964e-06  -8.3713635e-04  -1.7692846e-04  -6.6658887e-05   0.0000000e+00  -6.2987464e-05  -2.0367203e-04  -6.7060991e-06   1.2829615e-04   1.0871257e-04  -1.4669316e-04   0.0000000e+00  -3.3830805e-04   4.3391163e-05   1.0595684e-04   1.7522922e-04   1.7765484e-04   3.2779362e-05   0.0000000e+00  -3.1427007e-04  -3.7003200e-04  -2.8147201e-04  -1.8072617e-04  -1.1222807e-04  -1.9125564e-04  -9.4815920e-05  -3.1054320e-04  -2.9068749e-04  -2.2718589e-04  -1.7603197e-04   0.0000000e+00  -1.7330605e-06  -3.2986126e-04   0.0000000e+00   0.0000000e+00  -1.3748198e-04   0.0000000e+00   1.4705669e-04  -1.9859020e-04   4.9873693e-05   1.2191193e-04   5.4729569e-05   0.0000000e+00   1.7111265e-04   8.2022161e-05   4.9537092e-04   1.7803191e-04   2.9474307e-05   1.6607077e-04   0.0000000e+00   1.1229315e-04   7.3790177e-05   2.8654157e-04   1.0400576e-04   2.5562390e-04   1.3359975e-04   0.0000000e+00   9.0741640e-05   9.9746502e-05  -2.7478109e-05   1.6576069e-04  -1.3011718e-04   3.7143086e-04  -1.7577341e-05   1.3687260e-04   1.0375590e-04   2.0844261e-04   2.8236438e-04   0.0000000e+00   1.0802123e-03  -1.2080601e-04   0.0000000e+00   0.0000000e+00   1.0043350e-04   0.0000000e+00   4.6693311e-04   4.6843290e-04  -7.4747028e-05  -1.2077895e-03  -3.1076086e-04   0.0000000e+00  -5.7570152e-04  -3.2481397e-04  -2.3247961e-04  -1.7650745e-04  -8.4401637e-05  -3.8961508e-04   0.0000000e+00  -4.6153969e-04  -4.8410992e-04  -4.9279186e-05   5.1542924e-05  -8.5556671e-05  -1.2666230e-04   0.0000000e+00  -3.9363742e-04  -6.1151923e-04  -5.1902823e-04  -7.0151067e-04  -5.3207639e-04  -7.9545618e-04  -4.0982094e-04  -4.8431789e-04  -3.4281161e-04  -3.5093786e-04  -3.4050080e-04   0.0000000e+00  -4.3905291e-04  -3.8278671e-04   0.0000000e+00   0.0000000e+00  -3.9100830e-04   0.0000000e+00   3.7764628e-04  -7.1728215e-04  -4.5531189e-04  -5.1806990e-04  -8.7189197e-05   0.0000000e+00   1.8857578e-05  -4.5614395e-05  -3.4089979e-04   5.9161816e-05  -1.6567677e-04  -4.3436006e-05   0.0000000e+00  -6.6563226e-05  -9.9367599e-05  -1.2413454e-05  -9.6038925e-06  -7.4186398e-05  -3.7777674e-05   0.0000000e+00   4.9031637e-05   1.5290163e-04   4.5474636e-05  -1.0650326e-04  -8.0568217e-06  -2.3817342e-04  -2.3224147e-05   1.4348051e-05  -5.0086082e-05  -8.9263998e-05  -1.1346846e-04   0.0000000e+00  -6.6648903e-04   1.2357019e-04   0.0000000e+00   0.0000000e+00   1.3064919e-06   0.0000000e+00  -2.5766996e-04  -1.7144536e-04   9.8928779e-05   1.0139883e-04   5.1854785e-05   0.0000000e+00   5.8088447e-05   9.0325451e-05  -3.4313601e-04  -5.4000105e-05   8.2275420e-05   7.6376784e-05   0.0000000e+00   3.0654730e-05  -1.4636800e-04  -5.8002554e-05   6.2833956e-05   5.8578287e-05  -8.1559010e-06   0.0000000e+00   5.5169666e-05   2.3122067e-04   2.3463415e-04   1.3112040e-04   2.5457829e-04   3.7374842e-04   1.1726125e-04   1.2532146e-04   1.6997664e-04   7.7846461e-05   3.4222096e-04   0.0000000e+00   2.3006816e-04   5.0921254e-04   0.0000000e+00   0.0000000e+00   2.4234962e-04   0.0000000e+00  -1.2160545e-04  -2.4808672e-04
