   3.2414438e-05   3.2285497e-05  -6.7528591e-06   2.5247311e-05   2.5798775e-05   1.3150325e-05   1.2392304e-04  -1.5409768e-04   4.0957560e-05   1.1135022e-07   1.2193252e-05   1.2281725e-05   6.0004008e-05   1.5138196e-04   8.9275972e-05   7.7467859e-06  -2.9527594e-05   1.9411277e-06   1.9372131e-05   1.7933909e-05   1.4846759e-05   1.5232810e-05   1.2233824e-05   9.3589509e-06   1.2205421e-05   6.4673260e-06   1.2650871e-05   1.6548140e-05  -5.0005542e-06  -2.2676595e-05  -4.9656105e-06   7.3425754e-06   2.1893259e-06  -1.2571311e-05  -2.9027838e-06  -1.0392796e-05   4.5298368e-08   5.8794321e-06   5.4698447e-05   1.7582003e-05   1.7486464e-05   2.4170222e-05   9.3140667e-06   5.7276588e-06  -2.7573145e-05  -1.4994036e-05  -2.1327143e-05   1.0484274e-05   3.7736526e-06   1.4613241e-05  -2.3308175e-05  -1.2727393e-05  -9.5336069e-05  -2.9673172e-05   2.2065278e-05   5.1409790e-05   2.7451901e-05   2.6353786e-05   1.1521350e-05  -1.9293980e-06  -5.5471487e-06   6.4569045e-06   1.4247567e-05   1.4346561e-05   2.1521650e-06   5.6697222e-05   8.8860176e-07  -9.6848137e-06  -4.3525994e-05   2.6885823e-05   3.2621306e-05   2.2393383e-05   3.5559129e-05  -6.6748043e-05   9.0307044e-06  -2.6049869e-05  -1.2590804e-04  -8.9465442e-06  -1.5631501e-04   2.7794568e-05  -1.7554921e-04  -8.7129778e-06  -2.5048950e-04   2.4812317e-04  -3.2858618e-04  -1.8452800e-04  -1.3410717e-04  -1.2680158e-04  -7.9129748e-04  -4.4529290e-04  -4.3051431e-05  -2.3935025e-04  -1.8410444e-04  -4.8570433e-05  -1.4552671e-04  -1.4516244e-04  -1.3752511e-04  -6.6598814e-05  -2.7621747e-05  -9.3515582e-05   3.9738095e-05   5.2989394e-05   9.5656590e-06  -9.1858131e-05   3.7559770e-05  -2.0822963e-04  -5.4804032e-04   7.6521163e-05   1.1007582e-04   6.2802446e-05   1.0211220e-04  -1.9450162e-04  -2.7805945e-06   2.1159434e-04  -1.9591552e-05   1.2376416e-06  -1.7618786e-05  -4.4226732e-05   2.3126293e-06  -1.3725219e-05   6.2947248e-05  -2.8123577e-05   3.3311318e-05  -1.3511248e-05  -1.7052903e-05  -2.8065815e-05   6.8750622e-05   8.5274867e-05   4.2954467e-05   5.3355440e-06  -3.0638001e-05  -3.7555464e-05  -2.3028737e-05  -2.0189979e-05  -1.1288584e-05   5.4841554e-06   3.4587449e-06  -3.6443392e-05   4.6728393e-06  -2.5141943e-05  -2.6207765e-05  -1.3486168e-05  -1.8552168e-05   5.7675792e-07   9.0842196e-06  -3.9997707e-05  -4.2277796e-05  -1.8979935e-05   2.4888736e-07   1.8167216e-06   1.5453035e-06   5.5693641e-06  -2.5034298e-05  -1.1684481e-05  -4.8741182e-06  -3.6274827e-05   7.3888455e-06   8.1778140e-07   1.8843840e-05  -8.5204459e-05   2.7331227e-07   1.4185372e-07  -3.3068939e-06   5.4249546e-06   8.4425094e-05   6.1285706e-05   2.2706072e-05  -1.4850219e-05  -1.6700412e-05  -2.1516636e-05  -6.0169585e-06   9.0569756e-06   1.1305472e-05   3.3413517e-06   1.7428495e-05  -8.7712621e-06   1.5056305e-06   3.9442089e-06   6.9103033e-06  -6.6414665e-06  -2.9087918e-06   2.1297982e-05   6.6385642e-05  -1.0572998e-05  -1.3461185e-05   9.0669447e-07   8.7042537e-06   1.6375720e-05   8.5182792e-06   3.5596388e-05  -8.6970309e-06   6.2434944e-06  -2.0528810e-06  -2.9697669e-05   1.0089867e-05   3.7158076e-06   1.7154853e-05   1.8964369e-05   7.6480339e-06   7.8999451e-06   7.9431060e-07   1.1466984e-06   4.6406365e-05   3.2403629e-05   1.8410698e-05   9.6690334e-06  -7.0830175e-06  -6.7993574e-06  -7.5728308e-07   1.7999460e-05   1.7820512e-05   8.1871880e-06   1.2755045e-05  -2.0636556e-05   1.7684254e-05   6.8470647e-06  -4.0117507e-07  -9.2293066e-07  -8.7771726e-06  -2.5034168e-05   1.6949167e-05  -3.5755862e-06  -1.1356500e-05  -7.8075267e-06   5.6692609e-06   7.0957251e-08  -7.4716484e-06  -9.3527604e-06  -3.9849635e-05  -1.3344892e-05  -4.4074242e-05  -1.1078590e-04  -3.6902970e-05  -3.2926179e-05  -4.8132179e-05  -1.7528512e-04  -1.8111254e-05  -5.0111472e-05  -5.7906818e-05  -5.3311129e-05   1.8362345e-05  -7.3127623e-06  -9.9074290e-09  -3.1466339e-05  -5.7332652e-05  -6.3749363e-05  -4.2762834e-05  -4.2559903e-05  -2.6221888e-05  -1.8986390e-05  -9.3264075e-06  -6.6490558e-05  -3.4773767e-05  -3.0867626e-05  -6.6341403e-05  -3.5766836e-05  -1.7922311e-05   7.0607167e-06  -1.6390971e-05  -4.8041660e-05  -7.4141004e-05  -3.0772109e-05  -1.8052759e-05  -8.8378103e-06   1.7594217e-05  -3.3601751e-05  -6.7635119e-06   6.5950827e-06  -7.1330794e-06  -5.9361160e-05  -4.6370064e-06  -5.5320831e-06  -2.8681231e-05  -8.2707793e-05  -1.2703764e-05   4.7633969e-06  -6.3166103e-06  -4.2976403e-06   7.8127741e-05   1.7468527e-05  -2.9497875e-05  -1.8384859e-05  -1.0117225e-05  -1.3887906e-05  -4.1383980e-07   1.1959316e-07  -4.6964270e-06  -1.6797752e-06  -1.3857068e-06  -3.2144346e-05  -1.1861690e-05  -1.3825696e-05  -2.0266469e-05  -6.5311470e-06  -1.1584153e-05  -8.7094816e-07   3.3130961e-05  -3.4957284e-05  -3.8501066e-05  -7.0464525e-06  -1.5612689e-06  -6.9171016e-06   1.8845241e-05   6.6545429e-06   5.2711580e-05   1.4867080e-04   2.3477566e-05   3.3653318e-05   6.1092707e-05   5.2815825e-05  -6.9593410e-05  -3.8782715e-04  -1.3052291e-05   5.2643496e-05   5.1911381e-05   1.0439839e-04   2.1829498e-05   1.9475115e-04   1.4189922e-05  -1.2966244e-05  -3.4835031e-05   3.8321826e-06   3.9585235e-05   6.6280742e-05   5.0208508e-05   5.2991967e-05   2.6446163e-05   2.1083753e-05  -2.3726849e-06   3.0975486e-05  -2.4741970e-05   1.2553207e-05  -2.8107505e-05  -1.1661448e-04  -7.8929769e-05  -8.3482543e-06  -4.6698672e-05   1.8691197e-05   1.8516341e-05  -6.3751671e-05  -2.5446186e-05   3.0259180e-05  -2.8366915e-05  -2.9677382e-05   1.5957162e-05  -2.9173847e-05   1.0323354e-05  -4.4350359e-06   6.7405380e-05   6.7033193e-05   2.5997337e-05  -3.1047839e-06  -1.1677024e-05  -2.3438718e-05   3.8912557e-05   6.4456394e-05   3.6091264e-05   1.1103170e-05  -1.0458262e-05  -3.1584248e-05  -1.8091207e-05  -2.4782020e-05  -5.4257693e-06   5.2864887e-07  -2.0701968e-06  -6.0656124e-05   1.3863233e-05  -2.9767859e-05  -3.3392912e-05  -1.9587220e-05  -1.4937682e-05  -7.6768784e-07   2.6980625e-05  -4.0334119e-05  -4.9311972e-05  -2.6350599e-05   1.8455391e-05   2.6769846e-05   1.8288083e-06  -4.4785920e-05  -2.5879133e-05  -6.5418080e-06  -6.3133158e-05  -5.6613415e-05  -3.6207046e-05  -5.9551079e-05   5.9048729e-05  -2.9019508e-05   1.9093168e-05  -2.7514268e-05  -7.1803457e-05  -8.3426227e-05   4.4218759e-05   5.1219941e-05  -9.8124200e-06  -4.6921464e-05  -3.3597538e-05  -7.1464408e-05  -5.8356675e-05  -8.9787199e-05  -5.6647125e-05  -1.7773681e-05  -4.6182683e-05  -3.6350271e-05  -8.4541717e-05  -5.6316489e-05  -3.8780391e-05  -7.1596223e-06  -2.3926071e-05   4.3966153e-05   3.5470965e-05  -4.8398530e-05  -4.5055764e-05  -1.7479645e-05  -4.7242402e-05   2.1125943e-05  -8.3314562e-06  -4.0270698e-05
   3.4908496e-05   3.6242271e-05  -9.8540546e-06   2.4145944e-05   2.8109298e-05   1.2772015e-05   1.5106379e-04  -1.6770237e-04   4.9521805e-05  -1.8474053e-06   1.0852009e-05   1.0375381e-05   7.7963867e-05   1.8188741e-04   1.0584019e-04   9.6833296e-06  -3.6181797e-05  -2.0724824e-06   1.8221628e-05   1.8098880e-05   1.5202082e-05   1.7000208e-05   1.3352598e-05   7.2246391e-06   1.2093285e-05   4.8595827e-06   1.1120690e-05   1.7868551e-05  -6.5870746e-06  -2.3723253e-05   2.0194571e-07   4.0031958e-06  -2.4941236e-06  -1.5317801e-05  -3.4144173e-06  -1.0562570e-05   2.5402384e-06   1.0048941e-05   6.5325975e-05   2.1345649e-05   1.0917372e-05   2.7114423e-05   7.0254977e-06   1.5557995e-06  -2.9751085e-05  -1.5617515e-05  -2.5955391e-05   8.3263325e-06  -2.5382584e-06   8.5732998e-06  -2.8380609e-05  -1.6980449e-05  -1.0936056e-04  -3.6976969e-05   2.2235064e-05   5.4086565e-05   2.6054066e-05   2.0664071e-05   6.2028959e-06  -3.5816126e-06  -1.0733870e-05   6.0539521e-06   1.0776508e-05   1.1770721e-05  -3.7241912e-06   6.4906380e-05  -1.6451474e-06  -6.3423361e-06  -4.9321813e-05   2.4441062e-05   3.0731414e-05   2.3047613e-05   3.6316441e-05  -7.9722217e-05   8.8503534e-06  -2.6914295e-05  -1.4457089e-04  -1.5559487e-05  -1.7577102e-04   3.2337989e-05  -2.0375723e-04  -7.4040503e-06  -2.8731277e-04   2.8697949e-04  -3.8496092e-04  -2.1489459e-04  -1.5541989e-04  -1.4288550e-04  -9.1138485e-04  -5.1247542e-04  -5.0547501e-05  -2.7336388e-04  -2.0501274e-04  -5.4403261e-05  -1.6951805e-04  -1.6633863e-04  -1.5755908e-04  -7.7443629e-05  -3.5165576e-05  -1.0898740e-04   4.9230702e-05   6.2075356e-05   1.0501718e-05  -1.0267007e-04   4.8889695e-05  -2.4052425e-04  -6.2618154e-04   9.1621656e-05   1.2557438e-04   7.7316883e-05   1.2549187e-04  -2.1853660e-04   1.5526166e-07   2.4338544e-04  -2.3093632e-05   2.5713234e-07  -1.8415531e-05  -4.7707307e-05   2.2755431e-06  -1.5743206e-05   6.3238653e-05  -2.5924467e-05   3.3612088e-05  -1.4474646e-05  -1.9843081e-05  -3.2436394e-05   7.5399860e-05   8.6701315e-05   4.2080443e-05   5.3956132e-06  -3.3289309e-05  -4.3182307e-05  -2.7756514e-05  -2.3450923e-05  -1.2894069e-05   5.9676677e-06   3.7284943e-06  -3.9059348e-05   3.2965740e-06  -2.7408247e-05  -2.9739382e-05  -1.5691409e-05  -2.0053680e-05   1.6167297e-07   1.0582423e-05  -4.5669555e-05  -4.8769592e-05  -2.0866141e-05   3.5170098e-07   2.1514736e-06   1.2664093e-06   6.3749651e-06  -3.0716184e-05  -1.5229330e-05  -4.8384579e-06  -4.2074840e-05   6.0050141e-06  -5.0417365e-07   1.2369232e-05  -7.8997283e-05  -1.5670029e-06  -5.2830786e-07  -5.1178144e-06   3.5024859e-06   8.6483462e-05   5.8084980e-05   1.8478226e-05  -1.6544353e-05  -1.7490419e-05  -2.5280984e-05  -9.1831020e-06   8.2291297e-06   1.1525983e-05   2.5036546e-06   1.8251735e-05  -9.5177972e-06   1.8214817e-06   3.3216996e-06   6.3659268e-06  -7.9533919e-06  -2.8678118e-06   2.2532950e-05   7.1195998e-05  -1.2302040e-05  -1.5821880e-05   9.9916035e-07   9.1509921e-06   1.7688313e-05   8.6708698e-06   3.8232067e-05  -1.1884644e-05   5.1918965e-06  -1.6512372e-06  -3.2757763e-05   1.0484632e-05   2.5729231e-06   1.5572539e-05   1.6987564e-05   6.2632137e-06   7.5082885e-06  -1.3187585e-06  -1.9794594e-06   5.1967563e-05   3.3134539e-05   1.7205648e-05   9.4890546e-06  -9.3049734e-06  -1.0486918e-05  -4.0943562e-06   1.6969781e-05   1.7629851e-05   8.6894619e-06   1.3122549e-05  -2.2248668e-05   2.0074281e-05   5.9875021e-06  -2.7689932e-06  -1.0370263e-06  -9.5275616e-06  -2.5134159e-05   2.1588094e-05  -5.8593960e-06  -1.5023264e-05  -8.6392255e-06   7.3810892e-06   7.9942945e-07  -6.5670327e-06  -7.5422859e-06  -4.2296885e-05  -1.6141893e-05  -4.5960243e-05  -1.1860836e-04  -3.7955842e-05  -3.4018456e-05  -6.0218231e-05  -2.0519607e-04  -2.1273973e-05  -5.2494987e-05  -6.0735746e-05  -5.4338897e-05   1.8098275e-05  -1.3901854e-05  -2.7819018e-07  -3.3944228e-05  -6.0880866e-05  -6.7457245e-05  -4.5605305e-05  -4.4987834e-05  -2.6954731e-05  -2.0153645e-05  -9.4552192e-06  -6.9836286e-05  -3.6047899e-05  -3.2187413e-05  -7.1851598e-05  -3.8943226e-05  -1.7236824e-05   8.9117807e-06  -1.4295959e-05  -5.0441080e-05  -7.9458135e-05  -3.1521121e-05  -1.6990299e-05  -8.6012849e-06   2.1641935e-05  -3.3985124e-05  -1.2123479e-05   2.8071907e-06  -8.8043420e-06  -6.8219352e-05  -7.9719533e-06  -8.1550205e-06  -3.1147188e-05  -7.2893934e-05  -1.5754446e-05   3.6193085e-06  -9.8764261e-06  -8.6713900e-06   8.3154784e-05   6.7345601e-06  -3.6903392e-05  -2.0830290e-05  -9.1853208e-06  -1.7550966e-05  -3.0883787e-06  -1.9771722e-06  -5.9137159e-06  -3.2602015e-06  -2.6414233e-06  -3.5148907e-05  -1.3357987e-05  -1.6416809e-05  -2.5467091e-05  -8.8059371e-06  -1.1516633e-05   2.6656751e-06   4.0624283e-05  -4.0702833e-05  -4.5899922e-05  -8.9207469e-06  -1.3917830e-06  -5.7252599e-06   2.1703372e-05   8.2045497e-06   5.7840899e-05   1.6534101e-04   2.8574055e-05   4.1368871e-05   6.3908702e-05   5.8149483e-05  -9.3413828e-05  -3.7766920e-04  -2.7318320e-05   6.2135936e-05   5.9935238e-05   1.1762049e-04   1.9136855e-05   1.7460073e-04  -7.1686227e-06  -1.7159020e-05  -2.8564821e-05   9.4914006e-06   4.7518641e-05   7.6822033e-05   5.8850283e-05   6.1996827e-05   2.9269001e-05   3.1543219e-05  -1.3297201e-06   3.7460048e-05  -2.5971192e-05   1.7663596e-05  -3.1946315e-05  -1.2811548e-04  -8.5110374e-05  -8.1758941e-06  -4.6988838e-05   1.8242350e-05   2.0207030e-05  -7.1684983e-05  -3.0029494e-05   2.9544652e-05  -3.0166313e-05  -3.0800718e-05   1.8961444e-05  -2.8387740e-05   1.3023801e-05  -4.9783097e-06   7.8488764e-05   7.4786856e-05   2.9765623e-05  -1.5033907e-06  -1.2465287e-05  -2.6178035e-05   4.6221239e-05   7.3515990e-05   3.7300306e-05   1.3302711e-05  -9.4819101e-06  -3.6131358e-05  -2.0806975e-05  -2.6910451e-05  -4.5863418e-06   1.7027983e-06  -1.5479132e-06  -6.4165463e-05   1.5444409e-05  -3.2796969e-05  -3.4798334e-05  -1.7740004e-05  -1.6249228e-05  -1.3643589e-06   2.9271839e-05  -4.6086644e-05  -5.4958471e-05  -2.7743062e-05   2.1164141e-05   2.6996271e-05   3.4495925e-06  -4.7199556e-05  -1.7369159e-05  -2.5345089e-06  -8.1631160e-05  -5.3843931e-05  -4.0594703e-05  -6.4482601e-05   6.2852636e-05  -3.7044864e-05   1.7150605e-05  -2.6824449e-05  -7.7422051e-05  -8.5194903e-05   3.5880242e-05   5.0679367e-05  -1.3411668e-05  -5.6275903e-05  -3.1571606e-05  -7.1267666e-05  -5.7649277e-05  -9.6532601e-05  -6.0374479e-05  -1.7563352e-05  -5.2898042e-05  -3.2452846e-05  -9.5574248e-05  -5.5649473e-05  -3.7073819e-05  -2.8428149e-06  -2.3068061e-05   4.4965210e-05   3.7866783e-05  -5.0916383e-05  -4.1236730e-05  -1.3924830e-05  -5.2991115e-05   2.1101725e-05  -1.0023020e-05  -4.4880250e-05
   3.6515125e-05   3.9652978e-05  -1.3185951e-05   2.1743176e-05   2.9729320e-05   1.1802922e-05   1.7803377e-04  -1.7743551e-04   5.8083860e-05  -4.1049400e-06   8.8470686e-06   7.7598214e-06   9.6477745e-05   2.1170439e-04   1.2177026e-04   1.1656495e-05  -4.2823579e-05  -6.7005824e-06   1.6295970e-05   1.7638622e-05   1.5055012e-05   1.8436843e-05   1.4200119e-05   4.3092695e-06   1.1436981e-05   2.6952721e-06   8.9067173e-06   1.8701345e-05  -8.3445160e-06  -2.4088258e-05   6.0647816e-06  -1.2647020e-07  -7.9508567e-06  -1.8039148e-05  -3.9903916e-06  -1.0385866e-05   5.3310748e-06   1.4642710e-05   7.5431716e-05   2.4758803e-05   3.6502174e-06   2.9282565e-05   4.3224655e-06  -3.1367476e-06  -3.1815902e-05  -1.5293679e-05  -3.0687692e-05   5.5030714e-06  -9.7860598e-06   1.4292976e-06  -3.3286479e-05  -2.1766930e-05  -1.2251434e-04  -4.4178239e-05   2.1517017e-05   5.5362637e-05   2.3587303e-05   1.3261252e-05  -3.9507457e-07  -5.2104081e-06  -1.6082912e-05   4.8713132e-06   7.1085826e-06   8.5029814e-06  -1.0208265e-05   7.1290413e-05  -4.4978073e-06  -3.9587697e-06  -5.3579386e-05   2.1306961e-05   2.7635569e-05   2.2646594e-05   3.5423742e-05  -9.1487987e-05   8.1732037e-06  -2.7006988e-05  -1.6167990e-04  -2.2936130e-05  -1.9319175e-04   3.5872171e-05  -2.3025552e-04  -5.4100314e-06  -3.2196628e-04   3.2358690e-04  -4.3901688e-04  -2.4391105e-04  -1.7600016e-04  -1.5691199e-04  -1.0232887e-03  -5.7513351e-04  -5.7750888e-05  -3.0518443e-04  -2.2329290e-04  -6.0150185e-05  -1.9246867e-04  -1.8637894e-04  -1.7643034e-04  -8.7642914e-05  -4.3070067e-05  -1.2330525e-04   5.8685940e-05   7.0519592e-05   1.1081867e-05  -1.1238695e-04   6.0675628e-05  -2.7033094e-04  -6.9800841e-04   1.0625220e-04   1.3933901e-04   9.2052363e-05   1.4907726e-04  -2.3941046e-04   4.0035957e-06   2.7268456e-04  -2.6328003e-05  -1.0365415e-06  -1.8952041e-05  -5.0033209e-05   1.8755877e-06  -1.7737213e-05   6.1822974e-05  -2.2588729e-05   3.2809073e-05  -1.5318124e-05  -2.2598755e-05  -3.6650371e-05   8.0775779e-05   8.5560330e-05   3.9801178e-05   5.1391387e-06  -3.5235018e-05  -4.8325292e-05  -3.2424488e-05  -2.6675328e-05  -1.4513573e-05   6.2321814e-06   3.7528712e-06  -4.0788342e-05   1.4266406e-06  -2.9185161e-05  -3.2898242e-05  -1.7734871e-05  -2.1250251e-05  -4.4755198e-07   1.1724599e-05  -5.0853861e-05  -5.4657421e-05  -2.2289935e-05   2.2327355e-07   2.4822239e-06   1.0412090e-06   6.9382661e-06  -3.6514757e-05  -1.9175936e-05  -4.3653718e-06  -4.7260092e-05   4.1735509e-06  -2.0355737e-06   2.7791607e-06  -6.7221940e-05  -4.1646115e-06  -1.1248527e-06  -7.2036339e-06   1.0865885e-06   8.5252609e-05   5.0572741e-05   1.1359391e-05  -1.7732820e-05  -1.7447019e-05  -2.8949721e-05  -1.2857271e-05   6.7631201e-06   1.1430042e-05   1.3987873e-06   1.8555921e-05  -1.0001065e-05   2.2030729e-06   2.4507683e-06   5.3743275e-06  -9.2263532e-06  -2.6526562e-06   2.3509794e-05   7.4891176e-05  -1.3992402e-05  -1.8093222e-05   1.1767709e-06   9.5552687e-06   1.8707347e-05   8.3949871e-06   4.0186238e-05  -1.5305553e-05   3.5913516e-06  -1.2733510e-06  -3.5154690e-05   1.0383602e-05   1.1237355e-06   1.3498800e-05   1.3569234e-05   4.5030906e-06   6.6222794e-06  -3.6523617e-06  -5.5405868e-06   5.6632614e-05   3.3080950e-05   1.5455142e-05   8.7763772e-06  -1.1608051e-05  -1.4328887e-05  -7.8688345e-06   1.5076328e-05   1.6624487e-05   8.8043716e-06   1.2943518e-05  -2.3248884e-05   2.1988039e-05   4.7060426e-06  -5.4948462e-06  -1.1435419e-06  -1.0177040e-05  -2.4461784e-05   2.5539660e-05  -8.2828608e-06  -1.8645923e-05  -9.1830966e-06   9.0284365e-06   1.3567694e-06  -5.5363080e-06  -5.2821353e-06  -4.3683954e-05  -1.8883933e-05  -4.6935412e-05  -1.2422172e-04  -3.7855026e-05  -3.4220757e-05  -7.2149011e-05  -2.3469824e-04  -2.4680461e-05  -5.3666819e-05  -6.2234848e-05  -5.3871900e-05   1.7396386e-05  -2.0014352e-05  -6.6389815e-07  -3.6014273e-05  -6.3216365e-05  -6.9857041e-05  -4.7691301e-05  -4.6274389e-05  -2.6980870e-05  -2.0761701e-05  -9.2995447e-06  -7.1846201e-05  -3.6452714e-05  -3.2651075e-05  -7.6205705e-05  -4.1421755e-05  -1.5724328e-05   1.1040615e-05  -1.0805362e-05  -5.1894552e-05  -8.3456186e-05  -3.1489257e-05  -1.4901441e-05  -7.8297491e-06   2.5782154e-05  -3.2994170e-05  -1.7931819e-05  -1.7478002e-06  -1.0306857e-05  -7.6150246e-05  -1.1679896e-05  -1.0931463e-05  -3.4404266e-05  -5.7945340e-05  -1.9415630e-05   2.1960138e-06  -1.3717984e-05  -1.3515232e-05   8.5196833e-05  -8.4845030e-06  -4.5649913e-05  -2.3449397e-05  -7.7657264e-06  -2.1115601e-05  -6.2710519e-06  -4.6628079e-06  -7.5070570e-06  -5.1674872e-06  -4.2116139e-06  -3.7717691e-05  -1.4564280e-05  -1.8856973e-05  -3.0966388e-05  -1.1226459e-05  -1.0932917e-05   6.6742722e-06   4.8106552e-05  -4.5960867e-05  -5.2952898e-05  -1.0716230e-05  -1.1194512e-06  -4.2900087e-06   2.4373397e-05   1.0102709e-05   6.1953779e-05   1.8027549e-04   3.3007572e-05   4.7440578e-05   6.5154022e-05   6.2600320e-05  -1.2080318e-04  -3.6404609e-04  -4.3540495e-05   7.1302529e-05   6.7403404e-05   1.2970472e-04   1.4527914e-05   1.4741663e-04  -3.0612602e-05  -2.1291219e-05  -2.0920435e-05   1.5997198e-05   5.5568157e-05   8.7955736e-05   6.7955573e-05   7.0961021e-05   3.2070427e-05   4.2277643e-05   1.3443544e-07   4.4778834e-05  -2.5916790e-05   2.3197755e-05  -3.5537407e-05  -1.3846040e-04  -9.0359148e-05  -7.6019302e-06  -4.5851736e-05   1.6793314e-05   2.1570340e-05  -7.8977224e-05  -3.5514205e-05   2.6337279e-05  -3.0696492e-05  -3.0976027e-05   2.1292941e-05  -2.6216810e-05   1.5476102e-05  -5.3385398e-06   8.8816352e-05   8.1440413e-05   3.3309104e-05   5.2868055e-07  -1.2688942e-05  -2.8059537e-05   5.3241108e-05   8.1621741e-05   3.7659891e-05   1.5475422e-05  -7.5347437e-06  -3.9727420e-05  -2.2906167e-05  -2.8374759e-05  -3.5358092e-06   2.7367851e-06  -1.0566717e-06  -6.5702794e-05   1.5930416e-05  -3.4994760e-05  -3.4685643e-05  -1.4923401e-05  -1.7149693e-05  -2.1230623e-06   3.0335963e-05  -5.0763387e-05  -5.8723778e-05  -2.7864996e-05   2.3333819e-05   2.6042214e-05   5.0280971e-06  -4.8296672e-05  -6.5785207e-06   2.5027366e-06  -9.7875281e-05  -4.9050712e-05  -4.3107397e-05  -6.7570827e-05   6.5089529e-05  -4.4464276e-05   1.4394743e-05  -2.4891751e-05  -8.0857791e-05  -8.4348338e-05   2.6187219e-05   4.8817814e-05  -1.7048270e-05  -6.4302170e-05  -2.8459388e-05  -6.8943144e-05  -5.4645973e-05  -1.0088766e-04  -6.2035850e-05  -1.5568871e-05  -5.7782014e-05  -2.6988885e-05  -1.0245200e-04  -5.2825674e-05  -3.2903194e-05   2.8519062e-06  -2.1337431e-05   4.5753671e-05   4.0534047e-05  -5.1259149e-05  -3.5071986e-05  -9.2432389e-06  -5.6483596e-05   2.1157669e-05  -1.1169282e-05  -4.8829174e-05
   3.7137919e-05   4.2398006e-05  -1.6657931e-05   1.8022940e-05   3.0597054e-05   1.0273242e-05   2.0404654e-04  -1.8317812e-04   6.6414826e-05  -6.6061787e-06   6.2430078e-06   4.5335833e-06   1.1499721e-04   2.4001624e-04   1.3666850e-04   1.3586479e-05  -4.9304449e-05  -1.1804992e-05   1.3687640e-05   1.6576345e-05   1.4417593e-05   1.9474720e-05   1.4762620e-05   6.7188378e-07   1.0251862e-05   3.3111059e-08   6.0781723e-06   1.8982641e-05  -1.0238293e-05  -2.3765727e-05   1.2360401e-05  -4.9082537e-06  -1.4010996e-05  -2.0664087e-05  -4.6301143e-06  -9.8726170e-06   8.3231715e-06   1.9496215e-05   8.4604302e-05   2.7608755e-05  -3.5161700e-06   3.0538477e-05   1.5254099e-06  -7.9878140e-06  -3.3698531e-05  -1.3919760e-05  -3.5316110e-05   2.2018539e-06  -1.7558609e-05  -6.3923432e-06  -3.7602634e-05  -2.6867627e-05  -1.3434694e-04  -5.0895791e-05   1.9837333e-05   5.5178637e-05   2.0210203e-05   4.5468042e-06  -7.9576759e-06  -6.6338374e-06  -2.1165634e-05   2.7254261e-06   3.8087507e-06   4.7458043e-06  -1.6948756e-05   7.5345020e-05  -7.4257849e-06  -2.9636752e-06  -5.5703886e-05   1.7773929e-05   2.3499356e-05   2.1073579e-05   3.3007531e-05  -1.0127817e-04   7.2176685e-06  -2.6212272e-05  -1.7655709e-04  -3.0718509e-05  -2.0812411e-04   3.8204854e-05  -2.5418467e-04  -2.6935326e-06  -3.5375376e-04   3.5683679e-04  -4.8922156e-04  -2.7070485e-04  -1.9532795e-04  -1.6840450e-04  -1.1239243e-03  -6.3159765e-04  -6.4447447e-05  -3.3410683e-04  -2.3864894e-04  -6.5826117e-05  -2.1372883e-04  -2.0470581e-04  -1.9360181e-04  -9.6830796e-05  -5.0996961e-05  -1.3587009e-04   6.7830087e-05   7.8120457e-05   1.1411162e-05  -1.2083094e-04   7.2565059e-05  -2.9676181e-04  -7.6172767e-04   1.1994811e-04   1.5114199e-04   1.0660535e-04   1.7217014e-04  -2.5659700e-04   8.7116059e-06   2.9871619e-04  -2.9173146e-05  -2.6288778e-06  -1.9279805e-05  -5.1173944e-05   1.0589085e-06  -1.9675488e-05   5.8830686e-05  -1.8415334e-05   3.0984041e-05  -1.6082126e-05  -2.5248150e-05  -4.0589344e-05   8.4715770e-05   8.2001805e-05   3.6289009e-05   4.5374942e-06  -3.6421386e-05  -5.2802812e-05  -3.6866716e-05  -2.9789061e-05  -1.6139191e-05   6.2467218e-06   3.5002457e-06  -4.1625260e-05  -8.4158725e-07  -3.0440030e-05  -3.5588678e-05  -1.9558362e-05  -2.2130719e-05  -1.2024919e-06   1.2353133e-05  -5.5384501e-05  -5.9696376e-05  -2.3178737e-05  -1.5209516e-07   2.7942655e-06   8.6830466e-07   7.1921802e-06  -4.2253603e-05  -2.3436815e-05  -3.3606378e-06  -5.1581347e-05   2.0214898e-06  -3.6628496e-06  -9.7733836e-06  -5.0154253e-05  -7.4750075e-06  -1.5017012e-06  -9.4315418e-06  -1.6082457e-06   8.0853835e-05   3.8910035e-05   1.4262986e-06  -1.8315800e-05  -1.6484553e-05  -3.2361264e-05  -1.6920079e-05   4.7303841e-06   1.1080537e-05   7.5822167e-08   1.8361044e-05  -1.0175221e-05   2.6378063e-06   1.3953680e-06   4.0096251e-06  -1.0416649e-05  -2.2623330e-06   2.4311927e-05   7.7520850e-05  -1.5593869e-05  -2.0133440e-05   1.4899578e-06   9.9547289e-06   1.9453082e-05   7.6983859e-06   4.1504419e-05  -1.8888220e-05   1.4497064e-06  -9.8737063e-07  -3.6874854e-05   9.7389322e-06  -5.6862625e-07   1.0994311e-05   8.9221093e-06   2.4421104e-06   5.2598929e-06  -6.0764537e-06  -9.3606760e-06   6.0165859e-05   3.2158154e-05   1.3237060e-05   7.5368133e-06  -1.3859373e-05  -1.8116553e-05  -1.1900259e-05   1.2423706e-05   1.4844668e-05   8.4872411e-06   1.2209222e-05  -2.3621642e-05   2.3308597e-05   3.0532322e-06  -8.4622127e-06  -1.2758621e-06  -1.0730564e-05  -2.3117053e-05   2.8470445e-05  -1.0721914e-05  -2.2040957e-05  -9.4150369e-06   1.0508938e-05   1.6791367e-06  -4.5099883e-06  -2.7919887e-06  -4.4049862e-05  -2.1535491e-05  -4.7022576e-05  -1.2764217e-04  -3.6741060e-05  -3.3639911e-05  -8.4263042e-05  -2.6205645e-04  -2.8491899e-05  -5.3643021e-05  -6.2551982e-05  -5.2121394e-05   1.5853638e-05  -2.6191842e-05  -1.8384145e-06  -3.7612707e-05  -6.4151747e-05  -7.0989589e-05  -4.9079645e-05  -4.6456690e-05  -2.6392616e-05  -2.0809176e-05  -8.9034914e-06  -7.2626160e-05  -3.6063198e-05  -3.2291698e-05  -7.9411657e-05  -4.3189173e-05  -1.3426373e-05   1.3433147e-05  -5.9485831e-06  -5.2473063e-05  -8.6170357e-05  -3.0748136e-05  -1.1848865e-05  -6.5154865e-06   2.9880589e-05  -3.0717570e-05  -2.3958216e-05  -6.9171445e-06  -1.1575377e-05  -8.2857441e-05  -1.5667660e-05  -1.3734472e-05  -3.8615979e-05  -3.8557682e-05  -2.3683772e-05   5.4420604e-07  -1.7682435e-05  -1.8602924e-05   8.3915244e-05  -2.7844615e-05  -5.5602755e-05  -2.6254845e-05  -5.9272863e-06  -2.4356279e-05  -9.8280374e-06  -7.9025902e-06  -9.5263958e-06  -7.3947603e-06  -6.0985427e-06  -3.9835727e-05  -1.5403139e-05  -2.1033268e-05  -3.6600123e-05  -1.3718998e-05  -9.7971647e-06   1.0973928e-05   5.5273443e-05  -5.0520718e-05  -5.9327056e-05  -1.2280203e-05  -7.2697585e-07  -2.7182121e-06   2.6880924e-05   1.2380967e-05   6.4888780e-05   1.9335901e-04   3.6395222e-05   5.1135081e-05   6.4913505e-05   6.6092084e-05  -1.5087670e-04  -3.5197330e-04  -6.0981366e-05   7.9703757e-05   7.4069131e-05   1.4039649e-04   8.3905858e-06   1.1609355e-04  -5.4360076e-05  -2.5211389e-05  -1.2704831e-05   2.2939559e-05   6.3363300e-05   9.9556796e-05   7.7350856e-05   7.9655860e-05   3.4858428e-05   5.2723022e-05   2.0636265e-06   5.2835762e-05  -2.4565987e-05   2.8861857e-05  -3.8855859e-05  -1.4781003e-04  -9.4835914e-05  -6.6913150e-06  -4.3569123e-05   1.4375957e-05   2.2561220e-05  -8.5625383e-05  -4.1994668e-05   2.0689142e-05  -2.9801001e-05  -3.0177317e-05   2.2782420e-05  -2.2755452e-05   1.7597810e-05  -5.4064962e-06   9.7957301e-05   8.6797601e-05   3.6564352e-05   2.9816166e-06  -1.2186560e-05  -2.8815685e-05   5.9739478e-05   8.8552128e-05   3.7325478e-05   1.7607338e-05  -4.5918698e-06  -4.2063137e-05  -2.4136443e-05  -2.9020267e-05  -2.2657929e-06   3.5561789e-06  -6.1033489e-07  -6.5255648e-05   1.5168090e-05  -3.6215405e-05  -3.2919361e-05  -1.1334398e-05  -1.7601716e-05  -3.2380440e-06   3.0019731e-05  -5.4038306e-05  -6.0232180e-05  -2.6621657e-05   2.4792416e-05   2.3972157e-05   6.3612754e-06  -4.8160636e-05   5.8686128e-06   8.3145781e-06  -1.1025470e-04  -4.2672869e-05  -4.3289972e-05  -6.8657352e-05   6.5642522e-05  -5.0876423e-05   1.0976486e-05  -2.1887137e-05  -8.1963377e-05  -8.1193447e-05   1.5965131e-05   4.5919480e-05  -2.0604116e-05  -7.0464718e-05  -2.4659876e-05  -6.4977019e-05  -4.9625693e-05  -1.0283811e-04  -6.1487788e-05  -1.1599863e-05  -6.0311989e-05  -2.0394154e-05  -1.0411631e-04  -4.8091130e-05  -2.6386192e-05   9.7189877e-06  -1.8901466e-05   4.6630258e-05   4.3667369e-05  -4.9270059e-05  -2.6972579e-05  -3.7754550e-06  -5.7188555e-05   2.1424337e-05  -1.1682559e-05  -5.2066597e-05
   3.6714318e-05   4.4377793e-05  -2.0185681e-05   1.3012227e-05   3.0684904e-05   8.2361992e-06   2.2839338e-04  -1.8505015e-04   7.4296654e-05  -9.2981805e-06   3.1197768e-06   8.0667939e-07   1.3300805e-04   2.6612302e-04   1.5021900e-04   1.5390415e-05  -5.5502455e-05  -1.7250763e-05   1.0503515e-05   1.4954207e-05   1.3321175e-05   2.0060025e-05   1.5037030e-05  -3.6034921e-06   8.5761163e-06  -3.0520182e-06   2.7168812e-06   1.8669415e-05  -1.2222919e-05  -2.2773251e-05   1.8837144e-05  -1.0188753e-05  -2.0501498e-05  -2.3133264e-05  -5.3248982e-06  -9.0425144e-06   1.1430618e-05   2.4438555e-05   9.2490236e-05   2.9723672e-05  -9.7638397e-06   3.0809757e-05  -1.0181902e-06  -1.2615469e-05  -3.5264352e-05  -1.1454849e-05  -3.9592468e-05  -1.3491845e-06  -2.5405423e-05  -1.4428910e-05  -4.0879456e-05  -3.2004686e-05  -1.4441769e-04  -5.6756468e-05   1.7153408e-05   5.3535470e-05   1.6131258e-05  -5.0013330e-06  -1.6107014e-05  -7.6743676e-06  -2.5556792e-05  -5.2573582e-07   1.4259903e-06   7.2555605e-07  -2.3587982e-05   7.6724478e-05  -1.0140507e-05  -3.5470405e-06  -5.5162479e-05   1.4133597e-05   1.8528499e-05   1.8284852e-05   2.9351775e-05  -1.0839794e-04   6.2935328e-06  -2.4389430e-05  -1.8860366e-04  -3.8517578e-05  -2.2022144e-04   3.9225685e-05  -2.7480950e-04   7.5420267e-07  -3.8216251e-04   3.8573602e-04  -5.3426845e-04  -2.9450972e-04  -2.1294106e-04  -1.7700706e-04  -1.2107843e-03  -6.8051126e-04  -7.0449530e-05  -3.5955865e-04  -2.5092434e-04  -7.1438591e-05  -2.3273467e-04  -2.2075918e-04  -2.0858965e-04  -1.0468388e-04  -5.8581885e-05  -1.4617077e-04   7.6427242e-05   8.4754981e-05   1.1654019e-05  -1.2786391e-04   8.4216406e-05  -3.1913004e-04  -8.1596656e-04   1.3230750e-04   1.6091653e-04   1.2060390e-04   1.9410235e-04  -2.6976589e-04   1.4171666e-05   3.2088816e-04  -3.1531094e-05  -4.4915918e-06  -1.9447335e-05  -5.1159788e-05  -2.0510503e-07  -2.1518457e-05   5.4397578e-05  -1.3745018e-05   2.8258460e-05  -1.6801079e-05  -2.7709027e-05  -4.4127326e-05   8.7092619e-05   7.6224505e-05   3.1739373e-05   3.5817249e-06  -3.6818295e-05  -5.6452216e-05  -4.0919801e-05  -3.2709754e-05  -1.7754588e-05   5.9938163e-06   2.9588638e-06  -4.1602375e-05  -3.3839976e-06  -3.1154354e-05  -3.7727018e-05  -2.1117381e-05  -2.2689227e-05  -2.0384320e-06   1.2316906e-05  -5.9110162e-05  -6.3667046e-05  -2.3478325e-05  -7.6206000e-07   3.0676693e-06   7.2053747e-07   7.0802366e-06  -4.7764388e-05  -2.7906509e-05  -1.7494153e-06  -5.4837681e-05  -3.0695014e-07  -5.2626490e-06  -2.4939289e-05  -2.8380466e-05  -1.1397887e-05  -1.5206236e-06  -1.1645357e-05  -4.3394850e-06   7.3595808e-05   2.3552966e-05  -1.1037287e-05  -1.8231937e-05  -1.4571707e-05  -3.5350830e-05  -2.1219281e-05   2.2421111e-06   1.0555239e-05  -1.4088469e-06   1.7714577e-05  -1.0006321e-05   3.0980818e-06   2.3151322e-07   2.3708986e-06  -1.1494324e-05  -1.7109525e-06   2.5023225e-05   7.9142365e-05  -1.7052349e-05  -2.1794715e-05   1.9807316e-06   1.0373184e-05   1.9954028e-05   6.6089843e-06   4.2249450e-05  -2.2569128e-05  -1.2056919e-06  -8.5411709e-07  -3.7955220e-05   8.5267662e-06  -2.4306756e-06   8.0792141e-06   3.3622410e-06   1.5422545e-07   3.4675982e-06  -8.4613740e-06  -1.3256621e-05   6.2355280e-05   3.0260874e-05   1.0609405e-05   5.8019040e-06  -1.5919398e-05  -2.1645366e-05  -1.5995050e-05   9.1552766e-06   1.2369748e-05   7.7129069e-06   1.0940858e-05  -2.3394521e-05   2.3949539e-05   1.0946837e-06  -1.1544971e-05  -1.4767568e-06  -1.1193443e-05  -2.1238277e-05   3.0110429e-05  -1.3050123e-05  -2.5037081e-05  -9.3356670e-06   1.1724599e-05   1.7281382e-06  -3.6148044e-06  -3.2103328e-07  -4.3476473e-05  -2.4072636e-05  -4.6227209e-05  -1.2893265e-04  -3.4812045e-05  -3.2415843e-05  -9.7185355e-05  -2.8525840e-04  -3.2906375e-05  -5.2454506e-05  -6.1878873e-05  -4.9348250e-05   1.2953929e-05  -3.3354349e-05  -4.6758925e-06  -3.8653156e-05  -6.3461187e-05  -7.0910166e-05  -4.9831429e-05  -4.5620069e-05  -2.5301156e-05  -2.0316322e-05  -8.3222946e-06  -7.2293397e-05  -3.4974334e-05  -3.1169329e-05  -8.1493777e-05  -4.4256990e-05  -1.0407637e-05   1.6061241e-05   1.9039113e-07  -5.2252115e-05  -8.7649308e-05  -2.9376462e-05  -7.9451096e-06  -4.6762680e-06   3.3797814e-05  -2.7320255e-05  -2.9968873e-05  -1.2528092e-05  -1.2571687e-05  -8.8100612e-05  -1.9839874e-05  -1.6431219e-05  -4.3825720e-05  -1.5765027e-05  -2.8513925e-05  -1.2817879e-06  -2.1597610e-05  -2.3682182e-05   7.9107921e-05  -5.0693087e-05  -6.6493416e-05  -2.9237915e-05  -3.7561967e-06  -2.7044559e-05  -1.3588716e-05  -1.1622524e-05  -1.1994348e-05  -9.9276519e-06  -8.2849648e-06  -4.1489764e-05  -1.5798129e-05  -2.2825256e-05  -4.2170140e-05  -1.6209188e-05  -8.0813208e-06   1.5370232e-05   6.1807823e-05  -5.4193554e-05  -6.4695779e-05  -1.3455204e-05  -1.9537892e-07  -1.1208046e-06   2.9277376e-05   1.5054193e-05   6.6543582e-05   2.0455534e-04   3.8440726e-05   5.1884891e-05   6.3341290e-05   6.8609778e-05  -1.8254924e-04  -3.4608181e-04  -7.8853044e-05   8.6938591e-05   7.9739950e-05   1.4951205e-04   1.2844491e-06   8.3583753e-05  -7.6705808e-05  -2.8811020e-05  -4.7139268e-06   2.9878812e-05   7.0516112e-05   1.1145136e-04   8.6809504e-05   8.7842223e-05   3.7623558e-05   6.2365732e-05   4.5083046e-06   6.1504850e-05  -2.1953132e-05   3.4348008e-05  -4.1903474e-05  -1.5637431e-04  -9.8751180e-05  -5.4975778e-06  -4.0432974e-05   1.1100470e-05   2.3128665e-05  -9.1681530e-05  -4.9515760e-05   1.2860408e-05  -2.7397094e-05  -2.8415153e-05   2.3352749e-05  -1.8161941e-05   1.9356897e-05  -5.0647904e-06   1.0552918e-04   9.0722643e-05   3.9486330e-05   5.8475393e-06  -1.0800850e-05  -2.8207449e-05   6.5526105e-05   9.4160026e-05   3.6488554e-05   1.9706166e-05  -6.7678578e-07  -4.2878585e-05  -2.4268711e-05  -2.8692988e-05  -7.4321593e-07   4.1242784e-06  -1.9251966e-07  -6.2927140e-05   1.3126818e-05  -3.6357802e-05  -2.9437441e-05  -7.2146662e-06  -1.7600894e-05  -4.9475517e-06   2.8237762e-05  -5.5647191e-05  -5.9223592e-05  -2.4000575e-05   2.5408475e-05   2.0918657e-05   7.2388811e-06  -4.6960955e-05   1.9254425e-05   1.4605343e-05  -1.1739631e-04  -3.5203466e-05  -4.0813866e-05  -6.7685737e-05   6.4446960e-05  -5.5983665e-05   7.0678093e-06  -1.8039734e-05  -8.0687183e-05  -7.6141335e-05   6.0398737e-06   4.2299219e-05  -2.3993058e-05  -7.4363613e-05  -2.0603122e-05  -5.9929294e-05  -4.2948561e-05  -1.0247348e-04  -5.8683934e-05  -5.6019373e-06  -6.0097777e-05  -1.3133003e-05  -9.9834580e-05  -4.1786944e-05  -1.7775762e-05   1.7488139e-05  -1.5935338e-05   4.7817203e-05   4.7384521e-05  -4.4919120e-05  -1.7463724e-05   2.0873952e-06  -5.4728533e-05   2.1952817e-05  -1.1549289e-05  -5.4580389e-05
   3.5220515e-05   4.5519041e-05  -2.3692977e-05   6.7842372e-06   3.0001668e-05   5.7627856e-06   2.5046907e-04  -1.8338962e-04   8.1529948e-05  -1.2133327e-05  -4.3117980e-07  -3.3027980e-06   1.5004623e-04   2.8946068e-04   1.6219569e-04   1.6988276e-05  -6.1320972e-05  -2.2911610e-05   6.8551952e-06   1.2829270e-05   1.1812952e-05   2.0157087e-05   1.5030726e-05  -8.4115015e-06   6.4685984e-06  -6.4710252e-06  -1.0884647e-06   1.7742857e-05  -1.4246051e-05  -2.1151207e-05   2.5268940e-05  -1.5806546e-05  -2.7252409e-05  -2.5399937e-05  -6.0586806e-06  -7.9239477e-06   1.4579324e-05   2.9298193e-05   9.8827823e-05   3.0985710e-05  -1.4325574e-05   3.0107709e-05  -2.9645966e-06  -1.6641197e-05  -3.6323785e-05  -7.9249024e-06  -4.3242827e-05  -4.8907560e-06  -3.2854481e-05  -2.2198213e-05  -4.2676910e-05  -3.6861635e-05  -1.5231896e-04  -6.1418054e-05   1.3470212e-05   5.0503764e-05   1.1595954e-05  -1.4859989e-05  -2.4430683e-05  -8.1834939e-06  -2.8869373e-05  -4.9570889e-06   4.3179894e-07  -3.3174785e-06  -2.9774004e-05   7.5284467e-05  -1.2327127e-05  -5.6091160e-06  -5.1543728e-05   1.0658590e-05   1.2969829e-05   1.4333450e-05   2.4881442e-05  -1.1227724e-04   5.7788170e-06  -2.1375003e-05  -1.9734834e-04  -4.5928862e-05  -2.2925353e-04   3.8914514e-05  -2.9157045e-04   4.9049490e-06  -4.0686321e-04   4.0947941e-04  -5.7314008e-04  -3.1470514e-04  -2.2845678e-04  -1.8251066e-04  -1.2820561e-03  -7.2091536e-04  -7.5607056e-05  -3.8111908e-04  -2.6010117e-04  -7.6988729e-05  -2.4902645e-04  -2.3406008e-04  -2.2096732e-04  -1.1092792e-04  -6.5471446e-05  -1.5379059e-04   8.4294095e-05   9.0375578e-05   1.2021673e-05  -1.3340205e-04   9.5322592e-05  -3.3698847e-04  -8.5985089e-04   1.4301586e-04   1.6874201e-04   1.3371275e-04   2.1427518e-04  -2.7880100e-04   2.0229993e-05   3.3882316e-04  -3.3330660e-05  -6.5807595e-06  -1.9494193e-05  -5.0072981e-05  -1.9146726e-06  -2.3219405e-05   4.8656014e-05  -8.9366669e-06   2.4784890e-05  -1.7496485e-05  -2.9891737e-05  -4.7138423e-05   8.7819975e-05   6.8456964e-05   2.6358153e-05   2.2861553e-06  -3.6419422e-05  -5.9137109e-05  -4.4427706e-05  -3.5350448e-05  -1.9330863e-05   5.4725840e-06   2.1383465e-06  -4.0782084e-05  -6.0568895e-06  -3.1324731e-05  -3.9244635e-05  -2.2379873e-05  -2.2925319e-05  -2.8807380e-06   1.1479905e-05  -6.1903305e-05  -6.6385276e-05  -2.3155544e-05  -1.5680859e-06   3.2828946e-06   5.4666192e-07   6.5609528e-06  -5.2899344e-05  -3.2467060e-05   5.1520527e-07  -5.6885034e-05  -2.6641925e-06  -6.7146722e-06  -4.2196420e-05  -2.7877858e-06  -1.5780692e-05  -1.0580400e-06  -1.3676170e-05  -6.8557998e-06   6.3951589e-05   5.2182224e-06  -2.5563494e-05  -1.7472054e-05  -1.1738449e-05  -3.7760661e-05  -2.5578891e-05  -5.5703232e-07   9.9395689e-06  -2.9946845e-06   1.6681493e-05  -9.4783573e-06   3.5433255e-06  -9.6388539e-07   5.7491478e-07  -1.2439000e-05  -1.0264152e-06   2.5717994e-05   7.9811212e-05  -1.8317422e-05  -2.2940322e-05   2.6746894e-06   1.0819231e-05   2.0244776e-05   5.1762981e-06   4.2483100e-05  -2.6290548e-05  -4.3270197e-06  -9.1983402e-07  -3.8477603e-05   6.7529613e-06  -4.3845266e-06   4.7321403e-06  -2.7211056e-06  -2.2951804e-06   1.3154393e-06  -1.0686961e-05  -1.7049564e-05   6.3026486e-05   2.7277545e-05   7.6087995e-06   3.6301814e-06  -1.7652475e-05  -2.4727393e-05  -1.9957342e-05   5.4425241e-06   9.3148089e-06   6.4813302e-06   9.1882441e-06  -2.2630980e-05   2.3863348e-05  -1.0902642e-06  -1.4612907e-05  -1.7959859e-06  -1.1570779e-05  -1.8992180e-05   3.0268053e-05  -1.5145386e-05  -2.7488367e-05  -8.9718040e-06   1.2590350e-05   1.4919646e-06  -2.9660804e-06   1.8673296e-06  -4.2066579e-05  -2.6473726e-05  -4.4536606e-05  -1.2818236e-04  -3.2306494e-05  -3.0705171e-05  -1.1176781e-04  -3.0216114e-04  -3.8142290e-05  -5.0128817e-05  -6.0430710e-05  -4.5832482e-05   8.1208455e-06  -4.2695393e-05  -1.0182740e-05  -3.9025727e-05  -6.0903272e-05  -6.9678942e-05  -5.0006755e-05  -4.3878284e-05  -2.3823458e-05  -1.9316061e-05  -7.6095922e-06  -7.0966136e-05  -3.3296031e-05  -2.9354689e-05  -8.2490289e-05  -4.4651114e-05  -6.7534649e-06   1.8883497e-05   7.4772896e-06  -5.1299822e-05  -8.7937261e-05  -2.7450995e-05  -3.3444080e-06  -2.3537968e-06   3.7395540e-05  -2.3025050e-05  -3.5739108e-05  -1.8398994e-05  -1.3285564e-05  -9.1700996e-05  -2.4092441e-05  -1.8886339e-05  -4.9956399e-05   9.1049650e-06  -3.3819048e-05  -3.2315630e-06  -2.5287276e-05  -2.8490958e-05   7.0729931e-05  -7.6106938e-05  -7.7936992e-05  -3.2368857e-05  -1.3552408e-06  -2.8959801e-05  -1.7353267e-05  -1.5709424e-05  -1.4900444e-05  -1.2733082e-05  -1.0734815e-05  -4.2663799e-05  -1.5679969e-05  -2.4119137e-05  -4.7454366e-05  -1.8619253e-05  -5.7781645e-06   1.9672199e-05   6.7407863e-05  -5.6821025e-05  -6.8750762e-05  -1.4087908e-05   4.9314279e-07   4.0092982e-07   3.1631978e-05   1.8121213e-05   6.6890355e-05   2.1392318e-04   3.8957166e-05   4.9319208e-05   6.0656422e-05   7.0189153e-05  -2.1464189e-04  -3.5018118e-04  -9.6366837e-05   9.2673545e-05   8.4293385e-05   1.5696110e-04  -6.1180229e-06   5.2622713e-05  -9.6180636e-05  -3.2044412e-05   2.3335257e-06   3.6406992e-05   7.6662662e-05   1.2341948e-04   9.6073033e-05   9.5305229e-05   4.0350670e-05   7.0775292e-05   7.5454785e-06   7.0633444e-05  -1.8153190e-05   3.9351860e-05  -4.4683086e-05  -1.6440835e-04  -1.0235297e-04  -4.0345791e-06  -3.6700372e-05   7.1474969e-06   2.3236353e-05  -9.7257689e-05  -5.8057050e-05   3.3099350e-06  -2.3477044e-05  -2.5735353e-05   2.3030968e-05  -1.2642946e-05   2.0773291e-05  -4.1986117e-06   1.1122036e-04   9.3155673e-05   4.2046735e-05   9.1217204e-06  -8.3912763e-06  -2.6053934e-05   7.0470703e-05   9.8374036e-05   3.5361610e-05   2.1797274e-05   4.1347996e-06  -4.1980609e-05  -2.3116132e-05  -2.7255132e-05   1.0840240e-06   4.4454287e-06   2.4469739e-07  -5.8924009e-05   9.9025013e-06  -3.5366244e-05  -2.4249459e-05  -2.8277390e-06  -1.7174682e-05  -7.5133895e-06   2.4975302e-05  -5.5405136e-05  -5.5571500e-05  -2.0070085e-05   2.5103082e-05   1.7065335e-05   7.4599267e-06  -4.4939601e-05   3.2832380e-05   2.1069718e-05  -1.1828659e-04  -2.7141727e-05  -3.5510266e-05  -6.4689284e-05   6.1522799e-05  -5.9631896e-05   2.8423637e-06  -1.3610669e-05  -7.7083730e-05  -6.9664281e-05  -2.8136571e-06   3.8276206e-05  -2.7152701e-05  -7.5764137e-05  -1.6703980e-05  -5.4382250e-05  -3.5027430e-05  -9.9978938e-05  -5.3675532e-05   2.3422988e-06  -5.6915106e-05  -5.6669099e-06  -8.9291739e-05  -3.4306419e-05  -7.4330690e-06   2.5839348e-05  -1.2622391e-05   4.9434532e-05   5.1721547e-05  -3.8300792e-05  -7.1364775e-06   7.9309387e-06  -4.8928935e-05   2.2715219e-05  -1.0839285e-05  -5.6392510e-05
   3.2674322e-05   4.5777326e-05  -2.7114673e-05  -5.3779791e-07   2.8589602e-05   2.9387560e-06   2.6978986e-04  -1.7871562e-04   8.7939102e-05  -1.5067880e-05  -4.3102618e-06  -7.6754251e-06   1.6570752e-04   3.0961286e-04   1.7246019e-04   1.8306106e-05  -6.6688875e-05  -2.8671399e-05   2.8558402e-06   1.0269893e-05   9.9546548e-06   1.9750338e-05   1.4759621e-05  -1.3629203e-05   4.0056645e-06  -1.0127136e-05  -5.2446612e-06   1.6210466e-05  -1.6246588e-05  -1.8958261e-05   3.1464324e-05  -2.1598925e-05  -3.4102728e-05  -2.7430472e-05  -6.8074116e-06  -6.5525623e-06   1.7708811e-05   3.3910818e-05   1.0346363e-04   3.1345434e-05  -1.6557705e-05   2.8516069e-05  -4.0064858e-06  -1.9717591e-05  -3.6650657e-05  -3.4211774e-06  -4.5980312e-05  -8.1478561e-06  -3.9447384e-05  -2.9227141e-05  -4.2616675e-05  -4.1111000e-05  -1.5770213e-04  -6.4594575e-05   8.8488111e-06   4.6234014e-05   6.8890676e-06  -2.4486198e-05  -3.2500325e-05  -8.0571342e-06  -3.0786973e-05  -1.0564644e-05   1.1685174e-06  -7.1411254e-06  -3.5184837e-05   7.1104501e-05  -1.3666245e-05  -8.7437050e-06  -4.4600994e-05   7.5989093e-06   7.1100573e-06   9.3785777e-06   2.0138720e-05  -1.1251517e-04   6.0856141e-06  -1.6996642e-05  -2.0246363e-04  -5.2575784e-05  -2.3513903e-04   3.7333802e-05  -3.0411860e-04   9.6974373e-06  -4.2773740e-04   4.2749593e-04  -6.0516305e-04  -3.3086704e-04  -2.4161165e-04  -1.8488231e-04  -1.3366907e-03  -7.5227339e-04  -7.9815936e-05  -3.9854334e-04  -2.6629277e-04  -8.2468249e-05  -2.6229911e-04  -2.4421624e-04  -2.3041434e-04  -1.1537678e-04  -7.1333008e-05  -1.5845322e-04   9.1307085e-05   9.5005387e-05   1.2734324e-05  -1.3743060e-04   1.0562039e-04  -3.5014925e-04  -8.9302215e-04   1.5187053e-04   1.7481972e-04   1.4565223e-04   2.3218552e-04  -2.8379830e-04   2.6684669e-05   3.5235982e-04  -3.4529659e-05  -8.8373749e-06  -1.9449594e-05  -4.8041706e-05  -4.0367723e-06  -2.4724651e-05   4.1729569e-05  -4.3410695e-06   2.0737615e-05  -1.8175989e-05  -3.1700259e-05  -4.9498002e-05   8.6859353e-05   5.8941717e-05   2.0345823e-05   6.8896976e-07  -3.5240188e-05  -6.0753377e-05  -4.7251376e-05  -3.7618265e-05  -2.0826776e-05   4.6994270e-06   1.0698916e-06  -3.9251236e-05  -8.7062703e-06  -3.0959503e-05  -4.0090151e-05  -2.3329203e-05  -2.2845183e-05  -3.6575336e-06   9.7313006e-06  -6.3662454e-05  -6.7713817e-05  -2.2201255e-05  -2.5107799e-06   3.4202653e-06   2.7595765e-07   5.6082279e-06  -5.7536863e-05  -3.6995618e-05   3.4422638e-06  -5.7652675e-05  -4.9079408e-06  -7.9086196e-06  -6.0875030e-05   2.5454865e-05  -2.0431909e-05  -2.7418392e-08  -1.5357401e-05  -8.9166951e-06   5.2522488e-05  -1.5174128e-05  -4.1524218e-05  -1.6074852e-05  -8.0793789e-06  -3.9455995e-05  -2.9814377e-05  -3.5069699e-06   9.3159973e-06  -4.6216152e-06   1.5343200e-05  -8.5943473e-06   3.9237889e-06  -2.1117951e-06  -1.2584602e-06  -1.3243398e-05  -2.4874639e-07   2.6456887e-05   7.9567881e-05  -1.9342937e-05  -2.3451040e-05   3.5743658e-06   1.1285262e-05   2.0361262e-05   3.4581539e-06   4.2257503e-05  -3.0002539e-05  -7.8477113e-06  -1.2119708e-06  -3.8556735e-05   4.4526478e-06  -6.3509220e-06   8.9301720e-07  -8.8964641e-06  -4.8507162e-06  -1.1082444e-06  -1.2649306e-05  -2.0576293e-05   6.2049449e-05   2.3104132e-05   4.2480043e-06   1.1014517e-06  -1.8936522e-05  -2.7202017e-05  -2.3601125e-05   1.4736627e-06   5.8213669e-06   4.8149446e-06   7.0269736e-06  -2.1428044e-05   2.3045308e-05  -3.4138413e-06  -1.7538964e-05  -2.2856927e-06  -1.1866464e-05  -1.6563835e-05   2.8842144e-05  -1.6898010e-05  -2.9279821e-05  -8.3734344e-06   1.3039915e-05   9.8455251e-07  -2.6618862e-06   3.5140398e-06  -3.9936460e-05  -2.8715147e-05  -4.1911555e-05  -1.2549940e-04  -2.9476915e-05  -2.8671851e-05  -1.2899460e-04  -3.1067085e-04  -4.4414417e-05  -4.6693383e-05  -5.8423899e-05  -4.1853051e-05   7.9121525e-07  -5.5551332e-05  -1.9401906e-05  -3.8611102e-05  -5.6238367e-05  -6.7350043e-05  -4.9643743e-05  -4.1367854e-05  -2.2069788e-05  -1.7853098e-05  -6.8146890e-06  -6.8751796e-05  -3.1140597e-05  -2.6927546e-05  -8.2435219e-05  -4.4402892e-05  -2.5696004e-06   2.1846103e-05   1.5733869e-05  -4.9664388e-05  -8.7069332e-05  -2.5040909e-05   1.7624528e-06   3.9069092e-07   4.0542546e-05  -1.8100153e-05  -4.1056943e-05  -2.4341856e-05  -1.3739315e-05  -9.3553596e-05  -2.8322554e-05  -2.0971031e-05  -5.6810902e-05   3.4505830e-05  -3.9477081e-05  -5.2541749e-06  -2.8580860e-05  -3.2767829e-05   5.8893999e-05  -1.0295825e-04  -8.9445189e-05  -3.5597949e-05   1.1645579e-06  -2.9906082e-05  -2.0904750e-05  -2.0013714e-05  -1.8199490e-05  -1.5765353e-05  -1.3392318e-05  -4.3338925e-05  -1.4989370e-05  -2.4807679e-05  -5.2215731e-05  -2.0868698e-05  -2.8949676e-06   2.3696860e-05   7.1793668e-05  -5.8279255e-05  -7.1219315e-05  -1.4039183e-05   1.3581516e-06   1.7566609e-06   3.4023692e-05   2.1562879e-05   6.5994098e-05   2.2159740e-04   3.7906911e-05   4.3319100e-05   5.7133402e-05   7.0936670e-05  -2.4598711e-04  -3.6687665e-04  -1.1280624e-04   9.6689055e-05   8.7697809e-05   1.6275930e-04  -1.3078029e-05   2.5462094e-05  -1.1167951e-04  -3.4928258e-05   7.8649324e-06   4.2173263e-05   8.1494368e-05   1.3521950e-04   1.0486511e-04   1.0185667e-04   4.3021012e-05   7.7625831e-05   1.1263522e-05   8.0071500e-05  -1.3254827e-05   4.3607037e-05  -4.7212856e-05  -1.7217427e-04  -1.0592683e-04  -2.2751653e-06  -3.2570305e-05   2.7710121e-06   2.2855176e-05  -1.0250154e-04  -6.7540173e-05  -7.3454794e-06  -1.8118047e-05  -2.2219447e-05   2.1948661e-05  -6.4473981e-06   2.1917856e-05  -2.7038182e-06   1.1481620e-04   9.4117801e-05   4.4235815e-05   1.2800506e-05  -4.8467178e-06  -2.2240552e-05   7.4504763e-05   1.0120565e-04   3.4157405e-05   2.3920953e-05   9.7220150e-06  -3.9259079e-05  -2.0548709e-05  -2.4593166e-05   3.2805818e-06   4.5606481e-06   7.7226960e-07  -5.3553273e-05   5.7162624e-06  -3.3236662e-05  -1.7444549e-05   1.5665422e-06  -1.6388629e-05  -1.1190544e-05   2.0285663e-05  -5.3220100e-05  -4.9291422e-05  -1.4974179e-05   2.3863733e-05   1.2626328e-05   6.8475808e-06  -4.2394625e-05   4.5879839e-05   2.7432886e-05  -1.1237820e-04  -1.8952156e-05  -2.7389552e-05  -5.9802040e-05   5.6965398e-05  -6.1820007e-05  -1.5208362e-06  -8.8623941e-06  -7.1293530e-05  -6.2241418e-05  -9.9060496e-06   3.4161812e-05  -3.0061209e-05  -7.4616547e-05  -1.3324028e-05  -4.8870894e-05  -2.6282988e-05  -9.5600245e-05  -4.6616913e-05   1.1999613e-05  -5.0733627e-05   1.6000401e-06  -7.2654294e-05  -2.6064067e-05   4.1980029e-06   3.4429224e-05  -9.1152230e-06   5.1480549e-05   5.6619144e-05  -2.9631227e-05   3.4036930e-06   1.3360011e-05  -3.9855392e-05   2.3592982e-05  -9.7015868e-06  -5.7546189e-05
   2.9135481e-05   4.5139002e-05  -3.0397491e-05  -8.7838414e-06   2.6519644e-05  -1.3968438e-07   2.8600178e-04  -1.7167847e-04   9.3378190e-05  -1.8063656e-05  -8.4159890e-06  -1.2196001e-05   1.7965627e-04   3.2630952e-04   1.8095609e-04   1.9281905e-05  -7.1556591e-05  -3.4425795e-05  -1.3846369e-06   7.3526979e-06   7.8162617e-06   1.8844128e-05   1.4245576e-05  -1.9119439e-05   1.2757479e-06  -1.3917271e-05  -9.6594310e-06   1.4106986e-05  -1.8160725e-05  -1.6268689e-05   3.7274817e-05  -2.7408656e-05  -4.0905433e-05  -2.9204580e-05  -7.5414610e-06  -4.9697217e-06   2.0772530e-05   3.8125938e-05   1.0637357e-04   3.0833429e-05  -1.6001758e-05   2.6191532e-05  -3.9012818e-06  -2.1553304e-05  -3.6008386e-05   1.8994037e-06  -4.7524914e-05  -1.0845656e-05  -4.4768301e-05  -3.5075673e-05  -4.0419352e-05  -4.4440195e-05  -1.6029524e-04  -6.6077562e-05   3.4162623e-06   4.0956451e-05   2.3142228e-06  -3.3348420e-05  -3.9903246e-05  -7.2487634e-06  -3.1093305e-05  -1.7244337e-05   3.8104331e-06  -1.0508624e-05  -3.9535202e-05   6.4496767e-05  -1.3854897e-05  -1.2256755e-05  -3.4301512e-05   5.1668666e-06   1.2671710e-06   3.6941902e-06   1.5740185e-05  -1.0891611e-04   7.6210885e-06  -1.1094456e-05  -2.0382745e-04  -5.8120158e-05  -2.3793779e-04   3.4613907e-05  -3.1232981e-04   1.5021482e-05  -4.4484946e-04   4.3947700e-04  -6.3003699e-04  -3.4279339e-04  -2.5226490e-04  -1.8427071e-04  -1.3744513e-03  -7.7450319e-04  -8.3015036e-05  -4.1176435e-04  -2.6973634e-04  -8.7866446e-05  -2.7239711e-04  -2.5096964e-04  -2.3672299e-04  -1.1792437e-04  -7.5891134e-05  -1.6003608e-04   9.7402271e-05   9.8729906e-05   1.4014500e-05  -1.3999178e-04   1.1488607e-04  -3.5869612e-04  -9.1565076e-04   1.5876619e-04   1.7943778e-04   1.5620435e-04   2.4744439e-04  -2.8505119e-04   3.3291504e-05   3.6156556e-04  -3.5112731e-05  -1.1188555e-05  -1.9330549e-05  -4.5228866e-05  -6.5056207e-06  -2.5975261e-05   3.3731862e-05  -2.7592230e-07   1.6302800e-05  -1.8828222e-05  -3.3038291e-05  -5.1090311e-05   8.4225180e-05   4.7923905e-05   1.3888709e-05  -1.1483121e-06  -3.3312587e-05  -6.1231214e-05  -4.9271754e-05  -3.9420513e-05  -2.2187312e-05   3.7086656e-06  -1.9503973e-07  -3.7116620e-05  -1.1178657e-05  -3.0078087e-05  -4.0231233e-05  -2.3958900e-05  -2.2460587e-05  -4.3060071e-06   6.9963239e-06  -6.4319222e-05  -6.7567945e-05  -2.0630904e-05  -3.5130539e-06   3.4631137e-06  -1.7340193e-07   4.2127784e-06  -6.1587710e-05  -4.1371022e-05   7.0003680e-06  -5.7144702e-05  -6.9155241e-06  -8.7575784e-06  -8.0201769e-05   5.4935920e-05  -2.5128732e-05   1.6170194e-06  -1.6542062e-05  -1.0319227e-05   4.0001609e-05  -3.6571521e-05  -5.8185408e-05  -1.4131306e-05  -3.7495377e-06  -4.0335494e-05  -3.3743478e-05  -6.4368149e-06   8.7621836e-06  -6.2355568e-06   1.3787411e-05  -7.3797919e-06   4.1819801e-06  -3.1446585e-06  -3.0145569e-06  -1.3915174e-05   5.7097032e-07   2.7277440e-05   7.8439366e-05  -2.0091713e-05  -2.3245014e-05   4.6577814e-06   1.1747570e-05   2.0335732e-05   1.5234147e-06   4.1608111e-05  -3.3661729e-05  -1.1684598e-05  -1.7367206e-06  -3.8331839e-05   1.6901230e-06  -8.2541783e-06  -3.5255540e-06  -1.4729188e-05  -7.4688971e-06  -3.7009353e-06  -1.4265996e-05  -2.3697346e-05   5.9351456e-05   1.7660260e-05   5.2052153e-07  -1.6876588e-06  -1.9674071e-05  -2.8948729e-05  -2.6759762e-05  -2.5588254e-06   2.0489343e-06   2.7596774e-06   4.5548514e-06  -1.9907945e-05   2.1534994e-05  -5.7843829e-06  -2.0210126e-05  -2.9939176e-06  -1.2081287e-05  -1.4144848e-05   2.5826569e-05  -1.8217988e-05  -3.0333371e-05  -7.6103640e-06   1.3030468e-05   2.4309683e-07  -2.7742854e-06   4.3818029e-06  -3.7200510e-05  -3.0765526e-05  -3.8291461e-05  -1.2099695e-04  -2.6570428e-05  -2.6463466e-05  -1.4986799e-04  -3.0894389e-04  -5.1906164e-05  -4.2162103e-05  -5.6051518e-05  -3.7653038e-05  -9.5189509e-06  -7.3247230e-05  -3.3309915e-05  -3.7295408e-05  -4.9257906e-05  -6.3969790e-05  -4.8759364e-05  -3.8226534e-05  -2.0129453e-05  -1.5972781e-05  -5.9773556e-06  -6.5739014e-05  -2.8613695e-05  -2.3961834e-05  -8.1357117e-05  -4.3547371e-05   2.0254312e-06   2.4882295e-05   2.4747102e-05  -4.7371470e-05  -8.5057654e-05  -2.2201063e-05   7.1636027e-06   3.4732365e-06   4.3114293e-05  -1.2840621e-05  -4.5735830e-05  -3.0169865e-05  -1.3980696e-05  -9.3627786e-05  -3.2422949e-05  -2.2564827e-05  -6.4090779e-05   5.8777400e-05  -4.5340223e-05  -7.3029882e-06  -3.1319690e-05  -3.6269935e-05   4.3869566e-05  -1.2999041e-04  -1.0046926e-04  -3.8859192e-05   3.6883667e-06  -2.9724163e-05  -2.4018229e-05  -2.4356474e-05  -2.1812013e-05  -1.8963861e-05  -1.6182165e-05  -4.3490523e-05  -1.3677219e-05  -2.4794928e-05  -5.6214150e-05  -2.2879337e-05   5.4386309e-07   2.7282874e-05   7.4735312e-05  -5.8483610e-05  -7.1880894e-05  -1.3196304e-05   2.4151468e-06   2.8715963e-06   3.6527661e-05   2.5344690e-05   6.4005254e-05   2.2778307e-04   3.5407911e-05   3.4023883e-05   5.3078776e-05   7.1012018e-05  -2.7553598e-04  -3.9731177e-04  -1.2757782e-04   9.8907032e-05   9.0009965e-05   1.6702571e-04  -1.8878452e-05   3.6909338e-06  -1.2256148e-04  -3.7545249e-05   1.1509134e-05   4.6931705e-05   8.4787712e-05   1.4660677e-04   1.1290883e-04   1.0735136e-04   4.5619164e-05   8.2716317e-05   1.5770119e-05   8.9685688e-05  -7.3561350e-06   4.6897098e-05  -4.9509512e-05  -1.7992723e-04  -1.0975281e-04  -1.2666957e-07  -2.8139760e-05  -1.7215934e-06   2.1979580e-05  -1.0758679e-04  -7.7823200e-05  -1.8364888e-05  -1.1476361e-05  -1.7980676e-05   2.0332504e-05   1.5567620e-07   2.2901912e-05  -4.9799149e-07   1.1621434e-04   9.3719741e-05   4.6064218e-05   1.6878041e-05  -9.5158271e-08  -1.6732948e-05   7.7630295e-05   1.0274015e-04   3.3074326e-05   2.6127336e-05   1.5925737e-05  -3.4694068e-05  -1.6508746e-05  -2.0628003e-05   5.9177381e-06   4.5448297e-06   1.4818345e-06  -4.7190412e-05   8.9723218e-07  -3.0016867e-05  -9.1833575e-06   5.7267106e-06  -1.5337373e-05  -1.6202384e-05   1.4273489e-05  -4.9100255e-05  -4.0542843e-05  -8.9240581e-06   2.1742771e-05   7.8292273e-06   5.2650883e-06  -3.9655793e-05   5.7781355e-05   3.3481056e-05  -9.9672668e-05  -1.1019827e-05  -1.6664232e-05  -5.3239378e-05   5.0956372e-05  -6.2707343e-05  -5.8545872e-06  -4.0291792e-06  -6.3537963e-05  -5.4311097e-05  -1.4676233e-05   3.0234915e-05  -3.2719506e-05  -7.1066073e-05  -1.0730586e-05  -4.3834454e-05  -1.7107736e-05  -8.9626098e-05  -3.7751936e-05   2.3000247e-05  -4.1738619e-05   8.3507681e-06  -5.0612334e-05  -1.7459327e-05   1.6636803e-05   4.2925101e-05  -5.5289799e-06   5.3818497e-05   6.1930334e-05  -1.9233040e-05   1.3592951e-05   1.8037055e-05  -2.7831472e-05   2.4398094e-05  -8.3475079e-06  -5.8103408e-05
   2.4705554e-05   4.3622684e-05  -3.3498755e-05  -1.7738870e-05   2.3888902e-05  -3.3720488e-06   2.9888149e-04  -1.6299684e-04   9.7734195e-05  -2.1086648e-05  -1.2647133e-05  -1.6756762e-05   1.9162913e-04   3.3941688e-04   1.8769481e-04   1.9868367e-05  -7.5890266e-05  -4.0083181e-05  -5.7647141e-06   4.1580409e-06   5.4732849e-06   1.7464533e-05   1.3515073e-05  -2.4735809e-05  -1.6252122e-06  -1.7739974e-05  -1.4240723e-05   1.1491886e-05  -1.9923140e-05  -1.3166691e-05   4.2596423e-05  -3.3090581e-05  -4.7529948e-05  -3.0713509e-05  -8.2277437e-06  -3.2202890e-06   2.3736758e-05   4.1812452e-05   1.0766291e-04   2.9562831e-05  -1.2430974e-05   2.3348930e-05  -2.4972060e-06  -2.1932861e-05  -3.4175511e-05   7.8235357e-06  -4.7621286e-05  -1.2730499e-05  -4.8468669e-05  -3.9357666e-05  -3.5948354e-05  -4.6579758e-05  -1.5992675e-04  -6.5754752e-05  -2.6322787e-06   3.4979311e-05  -1.8133597e-06  -4.0959557e-05  -4.6267249e-05  -5.7865407e-06  -2.9693403e-05  -2.4794991e-05   8.3221898e-06  -1.3204715e-05  -4.2595255e-05   5.5989230e-05  -1.2630242e-05  -1.5212645e-05  -2.0849745e-05   3.5317605e-06  -4.2167117e-06  -2.3417720e-06   1.2324748e-05  -1.0151757e-04   1.0748382e-05  -3.5365558e-06  -2.0150879e-04  -6.2293043e-05  -2.3786155e-04   3.0936963e-05  -3.1631230e-04   2.0723104e-05  -4.5844037e-04   4.4540772e-04  -6.4782825e-04  -3.5050410e-04  -2.6041407e-04  -1.8098257e-04  -1.3958855e-03  -7.8795463e-04  -8.5203440e-05  -4.2090010e-04  -2.7078501e-04  -9.3173503e-05  -2.7933571e-04  -2.5420356e-04  -2.3982383e-04  -1.1855449e-04  -7.8940466e-05  -1.5858723e-04   1.0257517e-04   1.0167974e-04   1.6047104e-05  -1.4119254e-04   1.2295467e-04  -3.6297202e-04  -9.2841299e-04   1.6370071e-04   1.8293084e-04   1.6521486e-04   2.5979930e-04  -2.8303633e-04   3.9778253e-05   3.6671415e-04  -3.5091208e-05  -1.3550529e-05  -1.9142147e-05  -4.1815397e-05  -9.2249676e-06  -2.6910242e-05   2.4766310e-05   2.9983113e-06   1.1666039e-05  -1.9422042e-05  -3.3813753e-05  -5.1812746e-05   7.9987132e-05   3.5646082e-05   7.1510815e-06  -3.1460702e-06  -3.0686755e-05  -6.0539757e-05  -5.0397621e-05  -4.0666580e-05  -2.3345074e-05   2.5495676e-06  -1.5870887e-06  -3.4497305e-05  -1.3329989e-05  -2.8707161e-05  -3.9654211e-05  -2.4275298e-05  -2.1792210e-05  -4.7823573e-06   3.2438506e-06  -6.3840640e-05  -6.5921740e-05  -1.8486099e-05  -4.4889425e-06   3.3986906e-06  -8.8699623e-07   2.3832216e-06  -6.5002556e-05  -4.5479844e-05   1.1113074e-05  -5.5437786e-05  -8.5856901e-06  -9.2037409e-06  -9.9349064e-05   8.4069799e-05  -2.9636130e-05   3.8691010e-06  -1.7112230e-05  -1.0912289e-05   2.7120736e-05  -5.7871861e-05  -7.4750878e-05  -1.1772270e-05   1.0385406e-06  -4.0339526e-05  -3.7197821e-05  -9.1830535e-06   8.3435108e-06  -7.7859703e-06   1.2105134e-05  -5.8801897e-06   4.2598997e-06  -4.0072416e-06  -4.5952670e-06  -1.4473210e-05   1.3735160e-06   2.8196306e-05   7.6435006e-05  -2.0538619e-05  -2.2280241e-05   5.8738328e-06   1.2167470e-05   2.0196807e-05  -5.6239228e-07   4.0545719e-05  -3.7227930e-05  -1.5739255e-05  -2.4769337e-06  -3.7949434e-05  -1.4424285e-06  -1.0025063e-05  -8.6270734e-06  -1.9817159e-05  -1.0120715e-05  -6.3537016e-06  -1.5481292e-05  -2.6306965e-05   5.4922429e-05   1.0901850e-05  -3.5953033e-06  -4.6310304e-06  -1.9799832e-05  -2.9891259e-05  -2.9298298e-05  -6.4702903e-06  -1.8349738e-06   3.8251354e-07   1.8834201e-06  -1.8209038e-05   1.9416120e-05  -8.1110624e-06  -2.2530906e-05  -3.9583974e-06  -1.2215899e-05  -1.1917473e-05   2.1309026e-05  -1.9039118e-05  -3.0613168e-05  -6.7657934e-06   1.2548839e-05  -6.7620173e-07  -3.3457616e-06   4.2716069e-06  -3.3957280e-05  -3.2579917e-05  -3.3601029e-05  -1.1478668e-04  -2.3801561e-05  -2.4205788e-05  -1.7530243e-04  -2.9557358e-04  -6.0753139e-05  -3.6538908e-05  -5.3470853e-05  -3.3427491e-05  -2.3150820e-05  -9.6945233e-05  -5.2710924e-05  -3.4984321e-05  -3.9807575e-05  -5.9569495e-05  -4.7338275e-05  -3.4581472e-05  -1.8065163e-05  -1.3717905e-05  -5.1186064e-06  -6.1992213e-05  -2.5808320e-05  -2.0523648e-05  -7.9266668e-05  -4.2116970e-05   6.9043719e-06   2.7914943e-05   3.4276940e-05  -4.4418601e-05  -8.1894534e-05  -1.8973941e-05   1.2631032e-05   6.7966750e-06   4.5001371e-05  -7.5460087e-06  -4.9616335e-05  -3.5702795e-05  -1.4078635e-05  -9.1962872e-05  -3.6290087e-05  -2.3565033e-05  -7.1425717e-05   8.0264870e-05  -5.1242446e-05  -9.3373077e-06  -3.3366163e-05  -3.8788311e-05   2.6064806e-05  -1.5590335e-04  -1.1043587e-04  -4.2067247e-05   6.1066404e-06  -2.8301271e-05  -2.6478075e-05  -2.8540020e-05  -2.5626591e-05  -2.2255426e-05  -1.9016870e-05  -4.3092973e-05  -1.1710711e-05  -2.4004236e-05  -5.9221175e-05  -2.4576871e-05   4.4890637e-06   3.0297552e-05   7.6065366e-05  -5.7389411e-05  -7.0577899e-05  -1.1479555e-05   3.6781281e-06   3.6948441e-06   3.9208851e-05   2.9419679e-05   6.1161862e-05   2.3274143e-04   3.1730474e-05   2.1837298e-05   4.8825249e-05   7.0622124e-05  -3.0245975e-04  -4.4104320e-04  -1.4025707e-04   9.9398469e-05   9.1364415e-05   1.6996997e-04  -2.2900339e-05  -1.1917141e-05  -1.2871807e-04  -4.0023421e-05   1.3134410e-05   5.0558294e-05   8.6433664e-05   1.5735917e-04   1.1996339e-04   1.1169264e-04   4.8132122e-05   8.5989763e-05   2.1180259e-05   9.9372238e-05  -5.4283373e-07   4.9088127e-05  -5.1575870e-05  -1.8790688e-04  -1.1410544e-04   2.5567836e-06  -2.3404207e-05  -5.9792765e-06   2.0630763e-05  -1.1269602e-04  -8.8710587e-05  -2.8949777e-05  -3.7814062e-06  -1.3157849e-05   1.8485216e-05   6.8871143e-06   2.3863963e-05   2.4723354e-06   1.1543103e-04   9.2146598e-05   4.7556207e-05   2.1347537e-05   5.8864708e-06  -9.5889986e-06   7.9909103e-05   1.0312727e-04   3.2272441e-05   2.8464088e-05   2.2557904e-05  -2.8361358e-05  -1.1016800e-05  -1.5327499e-05   9.0636763e-06   4.4974411e-06   2.4727173e-06  -4.0258699e-05  -4.1417540e-06  -2.5802998e-05   3.0798037e-07   9.4553282e-06  -1.4145306e-05  -2.2714618e-05   7.0942048e-06  -4.3155598e-05  -2.9617055e-05  -2.1824705e-06   1.8860912e-05   2.8897472e-06   2.6227601e-06  -3.7058736e-05   6.8078865e-05   3.9098465e-05  -8.0751817e-05  -3.6139063e-06  -3.7327626e-06  -4.5290732e-05   4.3765304e-05  -6.2599661e-05  -9.9945359e-06   7.1684068e-07  -5.4099184e-05  -4.6226635e-05  -1.6719991e-05   2.6725824e-05  -3.5158303e-05  -6.5441597e-05  -9.0656904e-06  -3.9555216e-05  -7.8296822e-06  -8.2350723e-05  -2.7404147e-05   3.4849506e-05  -3.0324664e-05   1.4387630e-05  -2.4385329e-05  -8.8450494e-06   2.9396419e-05   5.1027786e-05  -1.9328051e-06   5.6185051e-05   6.7416190e-05  -7.5164741e-06   2.2955188e-05   2.1717139e-05  -1.3453896e-05   2.4875224e-05  -7.0433716e-06  -5.8132242e-05
   1.9522146e-05   4.1277963e-05  -3.6387920e-05  -2.7151181e-05   2.0811074e-05  -6.6573762e-06   3.0832850e-04  -1.5339433e-04   1.0092859e-04  -2.4105912e-05  -1.6906642e-05  -2.1260802e-05   2.0143276e-04   3.4892137e-04   1.9273891e-04   2.0034703e-05  -7.9668828e-05  -4.5561844e-05  -1.0191915e-05   7.6837487e-07   3.0035124e-06   1.5657498e-05   1.2596046e-05  -3.0328647e-05  -4.6001305e-06  -2.1497278e-05  -1.8902000e-05   8.4486023e-06  -2.1470552e-05  -9.7434484e-06   4.7369498e-05  -3.8514381e-05  -5.3862726e-05  -3.1957715e-05  -8.8310937e-06  -1.3512003e-06   2.6578338e-05   4.4864508e-05   1.0756914e-04   2.7730996e-05  -5.8892138e-06   2.0238359e-05   2.4745144e-07  -2.0734414e-05  -3.0981221e-05   1.4095415e-05  -4.6060130e-05  -1.3582623e-05  -5.0295554e-05  -4.1766678e-05  -2.9246188e-05  -4.7333597e-05  -1.5653873e-04  -6.3619603e-05  -9.0339054e-06   2.8677609e-05  -5.1862863e-06  -4.6900361e-05  -5.1283584e-05  -3.7710799e-06  -2.6630585e-05  -3.2919774e-05   1.4447919e-05  -1.5042019e-05  -4.4201129e-05   4.6295010e-05  -9.7981471e-06  -1.6505151e-05  -4.7035282e-06   2.8122906e-06  -8.9868815e-06  -8.2642556e-06   1.0501658e-05  -9.0600176e-05   1.5743370e-05   5.7538722e-06  -1.9579468e-04  -6.4916884e-05  -2.3525977e-04   2.6528632e-05  -3.1639897e-04   2.6614556e-05  -4.6890175e-04   4.4555910e-04  -6.5896466e-04  -3.5424775e-04  -2.6619445e-04  -1.7549169e-04  -1.4022858e-03  -7.9338084e-04  -8.6416444e-05  -4.2622933e-04  -2.6986573e-04  -9.8378685e-05  -2.8329811e-04  -2.5396317e-04  -2.3978005e-04  -1.1734687e-04  -8.0366270e-05  -1.5431885e-04   1.0687229e-04   1.0401179e-04   1.8968255e-05  -1.4120277e-04   1.2971727e-04  -3.6355157e-04  -9.3241707e-04   1.6676946e-04   1.8562895e-04   1.7259723e-04   2.6913606e-04  -2.7837198e-04   4.5865083e-05   3.6826201e-04  -3.4497696e-05  -1.5829754e-05  -1.8878239e-05  -3.7991107e-05  -1.2074200e-05  -2.7468920e-05   1.4934391e-05   5.2968611e-06   7.0042310e-06  -1.9908677e-05  -3.3944955e-05  -5.1584847e-05   7.4269223e-05   2.2347056e-05   2.7063614e-07  -5.2087588e-06  -2.7425218e-05  -5.8688328e-05  -5.0569301e-05  -4.1272915e-05  -2.4223061e-05   1.2887027e-06  -3.0245015e-06  -3.1518747e-05  -1.5034441e-05  -2.6880896e-05  -3.8366842e-05  -2.4292076e-05  -2.0867645e-05  -5.0672878e-06  -1.5072532e-06  -6.2232080e-05  -6.2810062e-05  -1.5832542e-05  -5.3499357e-06   3.2225234e-06  -1.9444412e-06   1.4346642e-07  -6.7766701e-05  -4.9220867e-05   1.5660487e-05  -5.2678483e-05  -9.8514121e-06  -9.2227722e-06  -1.1747997e-04   1.1118739e-04  -3.3716563e-05   6.6690799e-06  -1.6992956e-05  -1.0612746e-05   1.4605479e-05  -7.7995653e-05  -9.0426073e-05  -9.1623101e-06   6.0331266e-06  -3.9459746e-05  -4.0035944e-05  -1.1596953e-05   8.1045530e-06  -9.2325499e-06   1.0384690e-05  -4.1605202e-06   4.1021045e-06  -4.6627211e-06  -5.9250484e-06  -1.4944525e-05   2.0949422e-06   2.9205293e-05   7.3552866e-05  -2.0669412e-05  -2.0569096e-05   7.1462253e-06   1.2494774e-05   1.9961473e-05  -2.7388226e-06   3.9057614e-05  -4.0663604e-05  -1.9902615e-05  -3.3937734e-06  -3.7549435e-05  -4.8294562e-06  -1.1604797e-05  -1.4514440e-05  -2.3827669e-05  -1.2789793e-05  -8.9575464e-06  -1.6269447e-05  -2.8339934e-05   4.8818320e-05   2.8332351e-06  -8.1288213e-06  -7.6188728e-06  -1.9287780e-05  -3.0004531e-05  -3.1118768e-05  -1.0095388e-05  -5.6640547e-06  -2.2316550e-06  -8.6594924e-07  -1.6475856e-05   1.6810421e-05  -1.0309982e-05  -2.4430701e-05  -5.2017010e-06  -1.2267022e-05  -1.0044715e-05   1.5465408e-05  -1.9326008e-05  -3.0127742e-05  -5.9307910e-06   1.1613621e-05  -1.7033484e-06  -4.3862149e-06   3.0370085e-06  -3.0283837e-05  -3.4098403e-05  -2.7756467e-05  -1.0697532e-04  -2.1339552e-05  -2.1989491e-05  -2.0601334e-04  -2.6977043e-04  -7.1013251e-05  -2.9822617e-05  -5.0783093e-05  -2.9302818e-05  -4.0233777e-05  -1.2750147e-04  -7.8139984e-05  -3.1616179e-05  -2.7819993e-05  -5.4172580e-05  -4.5337078e-05  -3.0542880e-05  -1.5905843e-05  -1.1125835e-05  -4.2426458e-06  -5.7546875e-05  -2.2797462e-05  -1.6663580e-05  -7.6161322e-05  -4.0136797e-05   1.1935705e-05   3.0856783e-05   4.4063926e-05  -4.0783049e-05  -7.7553096e-05  -1.5385820e-05   1.7936817e-05   1.0249246e-05   4.6109531e-05  -2.5025302e-06  -5.2572524e-05  -4.0773227e-05  -1.4116456e-05  -8.8663767e-05  -3.9823658e-05  -2.3889789e-05  -7.8405300e-05   9.7457581e-05  -5.7011363e-05  -1.1320922e-05  -3.4612254e-05  -4.0159891e-05   6.0001213e-06  -1.7944665e-04  -1.1878895e-04  -4.5124198e-05   8.3255507e-06  -2.5579223e-05  -2.8092728e-05  -3.2359173e-05  -2.9508008e-05  -2.5552209e-05  -2.1794288e-05  -4.2119518e-05  -9.0741887e-06  -2.2385040e-05  -6.1031423e-05  -2.5891252e-05   8.8807087e-06   3.2642980e-05   7.5697958e-05  -5.4994776e-05  -6.7227402e-05  -8.8473634e-06   5.1571655e-06   4.1967073e-06   4.2113690e-05   3.3731262e-05   5.7777751e-05   2.3676882e-04   2.7290583e-05   7.3969774e-06   4.4702950e-05   7.0013921e-05  -3.2621173e-04  -4.9609110e-04  -1.5062471e-04   9.8383473e-05   9.1970166e-05   1.7189292e-04  -2.4684055e-05  -2.1455079e-05  -1.3056840e-04  -4.2549976e-05   1.2856632e-05   5.3059160e-05   8.6425492e-05   1.6727475e-04   1.2582820e-04   1.1484106e-04   5.0547792e-05   8.7515204e-05   2.7616921e-05   1.0906926e-04   7.1102004e-06   5.0121219e-05  -5.3419750e-05  -1.9629568e-04  -1.1921865e-04   5.9671377e-06  -1.8254066e-05  -9.6339281e-06   1.8854174e-05  -1.1800021e-04  -9.9961953e-05  -3.8289370e-05   4.6772619e-06  -7.9102125e-06   1.6757794e-05   1.3479788e-05   2.4959753e-05   6.2237814e-06   1.1260166e-04   8.9652084e-05   4.8750612e-05   2.6193914e-05   1.3063943e-05  -9.5537982e-07   8.1460176e-05   1.0256574e-04   3.1864554e-05   3.0971866e-05   2.9412956e-05  -2.0428851e-05  -4.1772317e-06  -8.7120382e-06   1.2770978e-05   4.5302275e-06   3.8407702e-06  -3.3201219e-05  -8.9392563e-06  -2.0739133e-05   1.0745786e-05   1.2610800e-05  -1.2953378e-05  -3.0816780e-05  -1.0727328e-06  -3.5590842e-05  -1.6922194e-05   4.9559129e-06   1.5397714e-05  -2.0085584e-06  -1.1129705e-06  -3.4920308e-05   7.6513956e-05   4.4276316e-05  -5.6790626e-05   3.1328418e-06   1.0819478e-05  -3.6302611e-05   3.5723377e-05  -6.1938051e-05  -1.3800168e-05   5.2803359e-06  -4.3311294e-05  -3.8223569e-05  -1.5830680e-05   2.3805066e-05  -3.7426786e-05  -5.8245781e-05  -8.3300692e-06  -3.6132220e-05   1.3204238e-06  -7.4059915e-05  -1.5967791e-05   4.6954355e-05  -1.7093542e-05   1.9657919e-05   4.3142284e-06  -4.9628458e-07   4.2026371e-05   5.8501315e-05   1.6597099e-06   5.8194587e-05   7.2765812e-05   5.0483644e-06   3.1152435e-05   2.4275450e-05   2.4230879e-06   2.4731751e-05  -6.0822608e-06  -5.7703241e-05
   1.3754819e-05   3.8182431e-05  -3.9042389e-05  -3.6741203e-05   1.7410316e-05  -9.8999629e-06   3.1434990e-04  -1.4353763e-04   1.0291869e-04  -2.7092094e-05  -2.1104919e-05  -2.5624603e-05   2.0894333e-04   3.5490604e-04   1.9618202e-04   1.9769443e-05  -8.2878606e-05  -5.0789355e-05  -1.4585081e-05  -2.7371600e-06   4.8106888e-07   1.3486340e-05   1.1517285e-05  -3.5749714e-05  -7.5547371e-06  -2.5098731e-05  -2.3560768e-05   5.0776293e-06  -2.2744863e-05  -6.0927316e-06   5.1570306e-05  -4.3569810e-05  -5.9807369e-05  -3.2945335e-05  -9.3184945e-06   5.9065209e-07   2.9280153e-05   4.7203171e-05   1.0643888e-04   2.5605691e-05   3.2921047e-06   1.7128443e-05   4.2489143e-06  -1.7942291e-05  -2.6333203e-05   2.0434214e-05  -4.2700394e-05  -1.3238294e-05  -5.0109777e-05  -4.2090489e-05  -2.0552070e-05  -4.6596628e-05  -1.5019528e-04  -5.9775183e-05  -1.5473300e-05   2.2474093e-05  -7.5207045e-06  -5.0848905e-05  -5.4731232e-05  -1.3784072e-06  -2.2087632e-05  -4.1243294e-05   2.1709929e-05  -1.5875369e-05  -4.4263525e-05   3.6262284e-05  -5.2523592e-06  -1.4958463e-05   1.3430916e-05   3.0762399e-06  -1.2694175e-05  -1.3546626e-05   1.0791763e-05  -7.6683746e-05   2.2761630e-05   1.6784562e-05  -1.8716755e-04  -6.5903846e-05  -2.3059164e-04   2.1617982e-05  -3.1311100e-04   3.2478834e-05  -4.7672016e-04   4.4047079e-04  -6.6417869e-04  -3.5447536e-04  -2.6986294e-04  -1.6838333e-04  -1.3955620e-03  -7.9187498e-04  -8.6742014e-05  -4.2817789e-04  -2.6746713e-04  -1.0348866e-04  -2.8462608e-04  -2.5045119e-04  -2.3680073e-04  -1.1446025e-04  -8.0140402e-05  -1.4760034e-04   1.1038606e-04   1.0588734e-04   2.2829810e-05  -1.4023866e-04   1.3509773e-04  -3.6119814e-04  -9.2913293e-04   1.6813480e-04   1.8782420e-04   1.7832274e-04   2.7548509e-04  -2.7177334e-04   5.1268114e-05   3.6681392e-04  -3.3381976e-05  -1.7927111e-05  -1.8523620e-05  -3.3941177e-05  -1.4913197e-05  -2.7596097e-05   4.3392448e-06   6.5229281e-06   2.4771110e-06  -2.0224367e-05  -3.3367325e-05  -5.0349251e-05   6.7253172e-05   8.2640627e-06  -6.6428420e-06  -7.2337651e-06  -2.3602575e-05  -5.5725803e-05  -4.9761285e-05  -4.1168745e-05  -2.4738694e-05   2.4057059e-09  -4.4165713e-06  -2.8306415e-05  -1.6189977e-05  -2.4639272e-05  -3.6397910e-05  -2.4029213e-05  -1.9722959e-05  -5.1739052e-06  -7.1850777e-06  -5.9537689e-05  -5.8328552e-05  -1.2758854e-05  -6.0128907e-06   2.9357891e-06  -3.4113960e-06  -2.4654664e-06  -6.9896270e-05  -5.2512141e-05   2.0484505e-05  -4.9069885e-05  -1.0677583e-05  -8.8261169e-06  -1.3379800e-04   1.3466377e-04  -3.7148429e-05   9.9048865e-06  -1.6158880e-05  -9.4133364e-06   3.1312133e-06  -9.5956616e-05  -1.0446131e-04  -6.4838601e-06   1.0951743e-05  -3.7737960e-05  -4.2150789e-05  -1.3558938e-05   8.0739162e-06  -1.0543187e-05   8.7046149e-06  -2.3009427e-06   3.6610486e-06  -5.0928211e-06  -6.9583552e-06  -1.5365642e-05   2.6708484e-06   3.0275009e-05   6.9784901e-05  -2.0486637e-05  -1.8173751e-05   8.3766225e-06   1.2672865e-05   1.9637470e-05  -4.9549634e-06   3.7112165e-05  -4.3930245e-05  -2.4058351e-05  -4.4293675e-06  -3.7253177e-05  -8.3372381e-06  -1.2948025e-05  -2.1273472e-05  -2.6526697e-05  -1.5471904e-05  -1.1411151e-05  -1.6633933e-05  -2.9770643e-05   4.1162675e-05  -6.4841983e-06  -1.3107532e-05  -1.0545618e-05  -1.8153079e-05  -2.9314836e-05  -3.2166371e-05  -1.3298979e-05  -9.2848571e-06  -4.9840452e-06  -3.5718355e-06  -1.4849981e-05   1.3872885e-05  -1.2307989e-05  -2.5867608e-05  -6.7263975e-06  -1.2231774e-05  -8.6556754e-06   8.5460749e-06  -1.9075935e-05  -2.8927493e-05  -5.1957799e-06   1.0275379e-05  -2.7620784e-06  -5.8718839e-06   5.9645790e-07  -2.6229324e-05  -3.5242907e-05  -2.0680360e-05  -9.7666226e-05  -1.9289196e-05  -1.9863012e-05  -2.4241915e-04  -2.3149015e-04  -8.2654623e-05  -2.2009503e-05  -4.8032675e-05  -2.5333047e-05  -6.0659457e-05  -1.6534908e-04  -1.0978949e-04  -2.7176258e-05  -1.3332114e-05  -4.7791203e-05  -4.2687670e-05  -2.6189345e-05  -1.3646676e-05  -8.2272786e-06  -3.3345266e-06  -5.2419330e-05  -1.9633434e-05  -1.2418153e-05  -7.2023954e-05  -3.7625759e-05   1.6985991e-05   3.3610413e-05   5.3838366e-05  -3.6420029e-05  -7.1990961e-05  -1.1454820e-05   2.2864809e-05   1.3712112e-05   4.6362561e-05   2.0336292e-06  -5.4511193e-05  -4.5233924e-05  -1.4182995e-05  -8.3893156e-05  -4.2930508e-05  -2.3484182e-05  -8.4621909e-05   1.0911321e-04  -6.2476512e-05  -1.3222369e-05  -3.4981083e-05  -4.0281262e-05  -1.5713733e-05  -1.9950706e-04  -1.2504291e-04  -4.7920766e-05   1.0271412e-05  -2.1559985e-05  -2.8701863e-05  -3.5613655e-05  -3.3302396e-05  -2.8761032e-05  -2.4412308e-05  -4.0547263e-05  -5.7757837e-06  -1.9908783e-05  -6.1479417e-05  -2.6759463e-05   1.3641482e-05   3.4259888e-05   7.3636065e-05  -5.1340031e-05  -6.1827739e-05  -5.3049013e-06   6.8538418e-06   4.3725979e-06   4.5263300e-05   3.8217020e-05   5.4228548e-05   2.4017237e-04   2.2613663e-05  -8.4539800e-06   4.1029210e-05   6.9442322e-05  -3.4657635e-04  -5.5912085e-04  -1.5867735e-04   9.6231975e-05   9.2092171e-05   1.7314645e-04  -2.3999504e-05  -2.5871937e-05  -1.2903912e-04  -4.5333761e-05   1.1025447e-05   5.4578500e-05   8.4889291e-05   1.7620463e-04   1.3037546e-04   1.1682676e-04   5.2867828e-05   8.7499626e-05   3.5189796e-05   1.1874684e-04   1.5549103e-05   5.0037338e-05  -5.5028901e-05  -2.0522997e-04  -1.2526196e-04   1.0335921e-05  -1.2496535e-05  -1.2322085e-05   1.6727095e-05  -1.2364044e-04  -1.1129703e-04  -4.5627305e-05   1.3563648e-05  -2.4070824e-06   1.5513484e-05   1.9685598e-05   2.6339823e-05   1.0730158e-05   1.0796768e-04   8.6534335e-05   4.9692761e-05   3.1392680e-05   2.1341782e-05   8.9299581e-06   8.2441682e-05   1.0128837e-04   3.1903647e-05   3.3673790e-05   3.6278847e-05  -1.1150714e-05   3.8251782e-06  -8.6095987e-07   1.7069614e-05   4.7556051e-06   5.6651617e-06  -2.6446632e-05  -1.3025280e-05  -1.5001368e-05   2.1805389e-05   1.5118668e-05  -1.1916221e-05  -4.0505072e-05  -1.0031220e-05  -2.6699646e-05  -2.9569544e-06   1.2180248e-05   1.1577570e-05  -6.7313830e-06  -5.9182321e-06  -3.3518204e-05   8.3071951e-05   4.9133381e-05  -2.9506272e-05   9.2425871e-06   2.6261591e-05  -2.6663214e-05   2.7220409e-05  -6.1261787e-05  -1.7148421e-05   9.6628052e-06  -3.1542371e-05  -3.0396254e-05  -1.1989404e-05   2.1570245e-05  -3.9586032e-05  -5.0114276e-05  -8.3715386e-06  -3.3457869e-05   1.0213536e-05  -6.5011057e-05  -3.8853724e-06   5.8658318e-05  -2.8259498e-06   2.4254825e-05   3.3341534e-05   7.4085159e-06   5.4140187e-05   6.5191391e-05   5.2871022e-06   5.9369465e-05   7.7618501e-05   1.7957081e-05   3.8014608e-05   2.5726047e-05   1.8715358e-05   2.3659051e-05  -5.7660609e-06  -5.6878402e-05
   7.5951397e-06   3.4438487e-05  -4.1447914e-05  -4.6214457e-05   1.3813818e-05  -1.3013049e-05   3.1704386e-04  -1.3398813e-04   1.0369688e-04  -3.0015235e-05  -2.5160779e-05  -2.9776672e-05   2.1409808e-04   3.5752672e-04   1.9813246e-04   1.9079194e-05  -8.5508430e-05  -5.5699484e-05  -1.8874431e-05  -6.2822314e-06  -2.0264509e-06   1.1028071e-05   1.0306512e-05  -4.0857150e-05  -1.0402788e-05  -2.8464490e-05  -2.8139860e-05   1.4937498e-06  -2.3698005e-05  -2.3068145e-06   5.5206247e-05  -4.8166319e-05  -6.5283094e-05  -3.3688899e-05  -9.6608942e-06   2.5583472e-06   3.1829038e-05   4.8779668e-05   1.0471469e-04   2.3515965e-05   1.4497520e-05   1.4276764e-05   9.3046575e-06  -1.3648447e-05  -2.0242043e-05   2.6547104e-05  -3.7483297e-05  -1.1598112e-05  -4.7901143e-05  -4.0223382e-05  -1.0313467e-05  -4.4374191e-05  -1.4109099e-04  -5.4434219e-05  -2.1592535e-05   1.6821199e-05  -8.5733178e-06  -5.2597003e-05  -5.6488894e-05   1.1490081e-06  -1.6384738e-05  -4.9327171e-05   2.9427113e-05  -1.5608559e-05  -4.2774004e-05   2.6818347e-05   1.0114403e-06  -9.4171277e-06   3.2617874e-05   4.3356458e-06  -1.5013045e-05  -1.7638006e-05   1.3577698e-05  -6.0508188e-05   3.1808228e-05   2.9470414e-05  -1.7628305e-04  -6.5268117e-05  -2.2440454e-04   1.6438430e-05  -3.0713300e-04   3.8079340e-05  -4.8243301e-04   4.3092691e-04  -6.6445550e-04  -3.5181004e-04  -2.7178135e-04  -1.6033310e-04  -1.3781377e-03  -7.8478572e-04  -8.6291880e-05  -4.2728076e-04  -2.6410668e-04  -1.0851725e-04  -2.8379539e-04  -2.4402758e-04  -2.3121890e-04  -1.1012794e-04  -7.8341185e-05  -1.3893643e-04   1.1323377e-04   1.0744803e-04   2.7600670e-05  -1.3856093e-04   1.3907928e-04  -3.5680716e-04  -9.2028062e-04   1.6801001e-04   1.8972832e-04   1.8241774e-04   2.7900876e-04  -2.6400942e-04   5.5718494e-05   3.6306796e-04  -3.1806332e-05  -1.9743217e-05  -1.8057415e-05  -2.9833388e-05  -1.7590760e-05  -2.7245050e-05  -6.9059518e-06   6.6688767e-06  -1.7815529e-06  -2.0295724e-05  -3.2038560e-05  -4.8084251e-05   5.9168628e-05  -6.3623170e-06  -1.3505414e-05  -9.1162295e-06  -1.9302181e-05  -5.1739203e-05  -4.7985285e-05  -4.0300739e-05  -2.4810348e-05  -1.2251877e-06  -5.6716317e-06  -2.4982260e-05  -1.6724090e-05  -2.2025569e-05  -3.3796928e-05  -2.3509496e-05  -1.8401724e-05  -5.1426390e-06  -1.3665648e-05  -5.5839061e-05  -5.2630893e-05  -9.3725142e-06  -6.4067510e-06   2.5488687e-06  -5.3308347e-06  -5.3897237e-06  -7.1439382e-05  -5.5289816e-05   2.5396142e-05  -4.4850395e-05  -1.1062826e-05  -8.0606210e-06  -1.4758516e-04   1.5306414e-04  -3.9736354e-05   1.3420185e-05  -1.4639291e-05  -7.3818979e-06  -6.7160649e-06  -1.1090692e-04  -1.1619869e-04  -3.9210928e-06   1.5505988e-05  -3.5269242e-05  -4.3479368e-05  -1.4982049e-05   8.2586965e-06  -1.1696408e-05   7.1331922e-06  -3.9321265e-07   2.9035111e-06  -5.2999344e-06  -7.6787556e-06  -1.5772015e-05   3.0401023e-06   3.1355709e-05   6.5131723e-05  -2.0007115e-05  -1.5211169e-05   9.4495612e-06   1.2644418e-05   1.9222256e-05  -7.1752035e-06   3.4663226e-05  -4.6987277e-05  -2.8088315e-05  -5.5109628e-06  -3.7150352e-05  -1.1821134e-05  -1.4023232e-05  -2.8957521e-05  -2.7801304e-05  -1.8170845e-05  -1.3626262e-05  -1.6606705e-05  -3.0616288e-05   3.2144649e-05  -1.6928585e-05  -1.8548924e-05  -1.3316693e-05  -1.6453298e-05  -2.7897291e-05  -3.2432472e-05  -1.5980907e-05  -1.2563507e-05  -7.7693977e-06  -6.1184859e-06  -1.3459403e-05   1.0779429e-05  -1.4046217e-05  -2.6830259e-05  -8.5115014e-06  -1.2104793e-05  -7.8393493e-06   8.5959098e-07  -1.8320690e-05  -2.7104889e-05  -4.6447626e-06   8.6152080e-06  -3.7758443e-06  -7.7458583e-06  -3.0608084e-06  -2.1810753e-05  -3.5923160e-05  -1.2312320e-05  -8.6959095e-05  -1.7685687e-05  -1.7832897e-05  -2.8456334e-04  -1.8151891e-04  -9.5541114e-05  -1.3102653e-05  -4.5198019e-05  -2.1498994e-05  -8.4046609e-05  -2.1041600e-04  -1.4745347e-04  -2.1703769e-05   3.4914132e-06  -4.0439750e-05  -3.9304963e-05  -2.1566233e-05  -1.1248883e-05  -5.0381088e-06  -2.3601130e-06  -4.6605165e-05  -1.6343634e-05  -7.8046377e-06  -6.6831182e-05  -3.4594055e-05   2.1923438e-05   3.6067178e-05   6.3329226e-05  -3.1274043e-05  -6.5160871e-05  -7.1909412e-06   2.7221663e-05   1.7058576e-05   4.5703900e-05   5.8508156e-06  -5.5375090e-05  -4.8957455e-05  -1.4364103e-05  -7.7854306e-05  -4.5525930e-05  -2.2321334e-05  -8.9712801e-05   1.1437448e-04  -6.7484828e-05  -1.5013337e-05  -3.4438151e-05  -3.9112146e-05  -3.8424049e-05  -2.1518938e-04  -1.2881830e-04  -5.0343284e-05   1.1900046e-05  -1.6307994e-05  -2.8193283e-05  -3.8122917e-05  -3.6848098e-05  -3.1783340e-05  -2.6767423e-05  -3.8359203e-05  -1.8432882e-06  -1.6584469e-05  -6.0449980e-05  -2.7129150e-05   1.8679116e-05   3.5132055e-05   6.9978037e-05  -4.6504013e-05  -5.4457311e-05  -8.9980041e-07   8.7651998e-06   4.2412264e-06   4.8654503e-05   4.2808439e-05   5.0920241e-05   2.4325806e-04   1.8298358e-05  -2.4727321e-05   3.8082283e-05   6.9166717e-05  -3.6368300e-04  -6.2575761e-04  -1.6462841e-04   9.3426897e-05   9.2021290e-05   1.7411707e-04  -2.0866942e-05  -2.6887262e-05  -1.2547167e-04  -4.8602390e-05   8.1980003e-06   5.5366572e-05   8.2051112e-05   1.8405259e-04   1.3354423e-04   1.1773340e-04   5.5096177e-05   8.6241169e-05   4.3991303e-05   1.2842474e-04   2.4732992e-05   4.8962182e-05  -5.6375739e-05  -2.1478881e-04  -1.3233274e-04   1.5906474e-05  -5.8713097e-06  -1.3713947e-05   1.4368758e-05  -1.2972416e-04  -1.2242182e-04  -5.0328141e-05   2.2524295e-05   3.1814392e-06   1.5093750e-05   2.5288226e-05   2.8134066e-05   1.5921111e-05   1.0186232e-04   8.3116054e-05   5.0432794e-05   3.6903935e-05   3.0560730e-05   1.9753491e-05   8.3038807e-05   9.9539575e-05   3.2373216e-05   3.6567215e-05   4.2950619e-05  -8.5355240e-07   1.2730322e-05   8.0847847e-06   2.1955045e-05   5.2712336e-06   7.9986133e-06  -2.0388282e-05  -1.5963850e-05  -8.7988889e-06   3.3133613e-05   1.6976311e-05  -1.1187764e-05  -5.1680304e-05  -1.9589700e-05  -1.6843623e-05   1.1715258e-05   1.9189625e-05   7.6528473e-06  -1.1208165e-05  -1.1714557e-05  -3.3069138e-05   8.7977787e-05   5.3909825e-05  -1.0803281e-06   1.4883259e-05   4.1745637e-05  -1.6779273e-05   1.8670253e-05  -6.1173295e-05  -1.9942532e-05   1.3963438e-05  -1.9177698e-05  -2.2700175e-05  -5.3955379e-06   2.0036796e-05  -4.1706446e-05  -4.1780476e-05  -8.8970883e-06  -3.1220337e-05   1.8838561e-05  -5.5414273e-05   8.3627582e-06   6.9285960e-05   1.1555271e-05   2.8414068e-05   6.0241108e-05   1.4799765e-05   6.5454436e-05   7.1033846e-05   9.0283923e-06   5.9169980e-05   8.1580507e-05   3.0712677e-05   4.3556254e-05   2.6226167e-05   3.4150567e-05   2.1355810e-05  -6.3831776e-06  -5.5713397e-05
   1.2491676e-06   3.0167901e-05  -4.3594688e-05  -5.5273463e-05   1.0145299e-05  -1.5922391e-05   3.1657799e-04  -1.2516736e-04   1.0328823e-04  -3.2844577e-05  -2.9003797e-05  -3.3659608e-05   2.1688912e-04   3.5698774e-04   1.9869477e-04   1.7988339e-05  -8.7548506e-05  -6.0231324e-05  -2.3000760e-05  -9.7966115e-06  -4.4589916e-06   8.3703303e-06   8.9901138e-06  -4.5522584e-05  -1.3070566e-05  -3.1527559e-05  -3.2566594e-05  -2.1817738e-06  -2.4293438e-05   1.5269259e-06   5.8303407e-05  -5.2234447e-05  -7.0221849e-05  -3.4202571e-05  -9.8352304e-06   4.5088297e-06   3.4210642e-05   4.9574934e-05   1.0289761e-04   2.1826480e-05   2.6847450e-05   1.1910575e-05   1.5090649e-05  -8.0516197e-06  -1.2839197e-05   3.2153622e-05  -3.0449321e-05  -8.6427913e-06  -4.3791072e-05  -3.6175267e-05   8.1876239e-07  -4.0791467e-05  -1.2954485e-04  -4.7902912e-05  -2.7014396e-05   1.2168871e-05  -8.1554779e-06  -5.2064376e-05  -5.6547288e-05   3.5188896e-06  -9.9598628e-06  -5.6704475e-05   3.6758484e-05  -1.4202173e-05  -3.9804975e-05   1.8902154e-05   8.8748517e-06   1.1485932e-06   5.1740431e-05   6.5514859e-06  -1.5658224e-05  -2.0000035e-05   1.9070835e-05  -4.2997954e-05   4.2723951e-05   4.3627634e-05  -1.6394579e-04  -6.3124525e-05  -2.1729397e-04   1.1185637e-05  -2.9924918e-04   4.3181275e-05  -4.8659628e-04   4.1789171e-04  -6.6095204e-04  -3.4699921e-04  -2.7239328e-04  -1.5203612e-04  -1.3527514e-03  -7.7362836e-04  -8.5213365e-05  -4.2415353e-04  -2.6030322e-04  -1.1349792e-04  -2.8138467e-04  -2.3518678e-04  -2.2348782e-04  -1.0464033e-04  -7.5132160e-05  -1.2895121e-04   1.1555680e-04   1.0881061e-04   3.3147438e-05  -1.3645605e-04   1.4166639e-04  -3.5134472e-04  -9.0771982e-04   1.6663252e-04   1.9144824e-04   1.8494435e-04   2.7998902e-04  -2.5584654e-04   5.8983234e-05   3.5777211e-04  -2.9839725e-05  -2.1183060e-05  -1.7456139e-05  -2.5810393e-05  -1.9956274e-05  -2.6383667e-05  -1.8670297e-05   5.8098582e-06  -5.6659948e-06  -2.0045799e-05  -2.9945178e-05  -4.4802578e-05   5.0288983e-05  -2.1282733e-05  -2.0255824e-05  -1.0758718e-05  -1.4616436e-05  -4.6851345e-05  -4.5289679e-05  -3.8637606e-05  -2.4362386e-05  -2.3059563e-06  -6.7007364e-06  -2.1658290e-05  -1.6596344e-05  -1.9088920e-05  -3.0633278e-05  -2.2756817e-05  -1.6954900e-05  -5.0462754e-06  -2.0776751e-05  -5.1253325e-05  -4.5920375e-05  -5.7960869e-06  -6.4783576e-06   2.0788995e-06  -7.7183613e-06  -8.5625941e-06  -7.2461538e-05  -5.7511417e-05   3.0187925e-05  -4.0284193e-05  -1.1035074e-05  -7.0023354e-06  -1.5823254e-04   1.6529667e-04  -4.1323136e-05   1.7023410e-05  -1.2513444e-05  -4.6560238e-06  -1.4467135e-05  -1.2217307e-04  -1.2510159e-04  -1.6459475e-06   1.9423888e-05  -3.2193926e-05  -4.4003500e-05  -1.5819280e-05   8.6465144e-06  -1.2676276e-05   5.7235880e-06   1.4669719e-06   1.8126930e-06  -5.3033944e-06  -8.1007167e-06  -1.6198781e-05   3.1471110e-06   3.2384156e-05   5.9604895e-05  -1.9262932e-05  -1.1843407e-05   1.0242980e-05   1.2354202e-05   1.8704442e-05  -9.3793148e-06   3.1666327e-05  -4.9790395e-05  -3.1876117e-05  -6.5572787e-06  -3.7291960e-05  -1.5133211e-05  -1.4814669e-05  -3.7573485e-05  -2.7669486e-05  -2.0897142e-05  -1.5532644e-05  -1.6244862e-05  -3.0933497e-05   2.2012507e-05  -2.8314681e-05  -2.4453346e-05  -1.5853004e-05  -1.4285893e-05  -2.5871679e-05  -3.1953395e-05  -1.8084172e-05  -1.5393509e-05  -1.0477598e-05  -8.4035724e-06  -1.2409095e-05   7.7179018e-06  -1.5483778e-05  -2.7337988e-05  -1.0510860e-05  -1.1883383e-05  -7.6357042e-06  -7.2462010e-06  -1.7125779e-05  -2.4786932e-05  -4.3479940e-06   6.7402443e-06  -4.6761297e-06  -9.9231323e-06  -7.8707379e-06  -1.7014663e-05  -3.6035165e-05  -2.6254972e-06  -7.4958337e-05  -1.6488924e-05  -1.5861410e-05  -3.3205794e-04  -1.2148858e-04  -1.0942374e-04  -3.1191819e-06  -4.2203529e-05  -1.7711376e-05  -1.0975104e-04  -2.6208326e-04  -1.9051469e-04  -1.5298036e-05   2.2351392e-05  -3.2137886e-05  -3.5092494e-05  -1.6690961e-05  -8.6500087e-06  -1.5708929e-06  -1.2709923e-06  -4.0095961e-05  -1.2930892e-05  -2.8325431e-06  -6.0557652e-05  -3.1047442e-05   2.6625717e-05   3.8112340e-05   7.2268956e-05  -2.5287906e-05  -5.7023821e-05  -2.6046365e-06   3.0847519e-05   2.0163818e-05   4.4098310e-05   8.7996688e-06  -5.5141427e-05  -5.1842417e-05  -1.4729453e-05  -7.0779938e-05  -4.7540563e-05  -2.0405626e-05  -9.3395021e-05   1.1284737e-04  -7.1907831e-05  -1.6670404e-05  -3.2985858e-05  -3.6680717e-05  -6.1462695e-05  -2.2588365e-04  -1.2988254e-04  -5.2271743e-05   1.3200239e-05  -9.9440046e-06  -2.6508760e-05  -3.9738382e-05  -3.9986516e-05  -3.4521180e-05  -2.8764740e-05  -3.5552468e-05   2.6667172e-06  -1.2453083e-05  -5.7887229e-05  -2.6959339e-05   2.3899997e-05   3.5281595e-05   6.4919431e-05  -4.0601667e-05  -4.5279396e-05   4.2750768e-06   1.0878837e-05   3.8429779e-06   5.2256818e-05   4.7435180e-05   4.8273138e-05   2.4630794e-04   1.4972460e-05  -4.0356580e-05   3.6101742e-05   6.9427053e-05  -3.7799318e-04  -6.9099604e-04  -1.6888919e-04   9.0532900e-05   9.2048339e-05   1.7518663e-04  -1.5595598e-05  -2.6835885e-05  -1.2152199e-04  -5.2568158e-05   5.0784571e-06   5.5767785e-05   7.8240145e-05   1.9077435e-04   1.3537075e-04   1.1770270e-04   5.7243026e-05   8.4129613e-05   5.4086898e-05   1.3814365e-04   3.4633937e-05   4.7095052e-05  -5.7429341e-05  -2.2497753e-04  -1.4043162e-04   2.2903530e-05   1.9091646e-06  -1.3524612e-05   1.1910899e-05  -1.3629812e-04  -1.3302660e-04  -5.1902512e-05   3.1201484e-05   8.6921094e-06   1.5778936e-05   3.0116550e-05   3.0436164e-05   2.1678417e-05   9.4687787e-05   7.9716702e-05   5.1016807e-05   4.2672839e-05   4.0500142e-05   3.1137948e-05   8.3445381e-05   9.7557487e-05   3.3190384e-05   3.9620127e-05   4.9242214e-05   1.0082181e-05   2.2214472e-05   1.7922898e-05   2.7383461e-05   6.1522440e-06   1.0853031e-05  -1.5353053e-05  -1.7393768e-05  -2.3555369e-06   4.4364727e-05   1.8246592e-05  -1.0912960e-05  -6.4150697e-05  -2.9575402e-05  -6.4348656e-06   2.6503792e-05   2.5707241e-05   3.8826540e-06  -1.5438848e-05  -1.8374450e-05  -3.3715005e-05   9.1696420e-05   5.8959245e-05   2.5973043e-05   2.0359414e-05   5.6359871e-05  -7.0565354e-06   1.0489479e-05  -6.2292273e-05  -2.2116155e-05   1.8378951e-05  -6.6027657e-06  -1.4947453e-05   3.5628248e-06   1.9145903e-05  -4.3857894e-05  -3.4027094e-05  -9.4914139e-06  -2.8924562e-05   2.7287094e-05  -4.5432481e-05   2.0284455e-05   7.8184391e-05   2.5040171e-05   3.2489969e-05   8.2392092e-05   2.1722591e-05   7.5786163e-05   7.6066986e-05   1.2990933e-05   5.7038062e-05   8.4264865e-05   4.2844645e-05   4.7984853e-05   2.6075220e-05   4.7340961e-05   1.7566289e-05  -8.1779099e-06  -5.4253662e-05
  -5.0740090e-06   2.5506857e-05  -4.5476674e-05  -6.3633739e-05   6.5185118e-06  -1.8567353e-05   3.1316999e-04  -1.1734361e-04   1.0174778e-04  -3.5546743e-05  -3.2573685e-05  -3.7226461e-05   2.1735573e-04   3.5352027e-04   1.9795952e-04   1.6535250e-05  -8.8988876e-05  -6.4326493e-05  -2.6912805e-05  -1.3216435e-05  -6.7687391e-06   5.6068708e-06   7.5920762e-06  -4.9633439e-05  -1.5497841e-05  -3.4233527e-05  -3.6773249e-05  -5.8273963e-06  -2.4507545e-05   5.3267865e-06   6.0895897e-05  -5.5725441e-05  -7.4566385e-05  -3.4500351e-05  -9.8279976e-06   6.4009966e-06   3.6406105e-05   4.9599880e-05   1.0151786e-04   2.0919424e-05   3.9240569e-05   1.0197988e-05   2.1189421e-05  -1.4441386e-06  -4.3892052e-06   3.7001341e-05  -2.1742415e-05  -4.4343156e-06  -3.8032162e-05  -3.0069412e-05   1.2021720e-05  -3.6091742e-05  -1.1599447e-04  -4.0566029e-05  -3.1362489e-05   8.9412664e-06  -6.1518184e-06  -4.9303227e-05  -5.5007341e-05   5.4037858e-06  -3.3461131e-06  -6.2906905e-05   4.2761473e-05  -1.1675894e-05  -3.5509331e-05   1.3402974e-05   1.8098836e-05   1.7564095e-05   6.9557320e-05   9.6346680e-06  -1.4408481e-05  -2.0149644e-05   2.7282457e-05  -2.5202444e-05   5.5177704e-05   5.8964118e-05  -1.5104789e-04  -5.9672731e-05  -2.0986834e-04   6.0147929e-06  -2.9029140e-04   4.7566756e-05  -4.8971953e-04   4.0245555e-04  -6.5491230e-04  -3.4086555e-04  -2.7218306e-04  -1.4419294e-04  -1.3223027e-03  -7.5997185e-04  -8.3659424e-05  -4.1944520e-04  -2.5653675e-04  -1.1847880e-04  -2.7804521e-04  -2.2453833e-04  -2.1414769e-04  -9.8321218e-05  -7.0761591e-05  -1.1833647e-04   1.1749048e-04   1.1003346e-04   3.9241562e-05  -1.3422164e-04   1.4289080e-04  -3.4578598e-04  -8.9331892e-04   1.6423749e-04   1.9297316e-04   1.8599937e-04   2.7880496e-04  -2.4800128e-04   6.0876333e-05   3.5166814e-04  -2.7553105e-05  -2.2159052e-05  -1.6696991e-05  -2.1982345e-05  -2.1866581e-05  -2.4995984e-05  -3.0800005e-05   4.0843340e-06  -9.1029505e-06  -1.9401419e-05  -2.7105448e-05  -4.0557193e-05   4.0922292e-05  -3.6234679e-05  -2.6850307e-05  -1.2076265e-05  -9.6437184e-06  -4.1215116e-05  -4.1758177e-05  -3.6175945e-05  -2.3331969e-05  -3.1552418e-06  -7.4265916e-06  -1.8432833e-05  -1.5798192e-05  -1.5880866e-05  -2.6994681e-05  -2.1794737e-05  -1.5438844e-05  -4.9824016e-06  -2.8306899e-05  -4.5929236e-05  -3.8442675e-05  -2.1615372e-06  -6.1959095e-06   1.5487504e-06  -1.0558507e-05  -1.1908271e-05  -7.3038798e-05  -5.9154249e-05   3.4646669e-05  -3.5631920e-05  -1.0647806e-05  -5.7518815e-06  -1.6526061e-04   1.7074333e-04  -4.1793865e-05   2.0504833e-05  -9.9083819e-06  -1.4371866e-06  -1.9789012e-05  -1.2927084e-04  -1.3077492e-04   1.9952806e-07   2.2461348e-05  -2.8691956e-05  -4.3753389e-05  -1.6063612e-05   9.2083058e-06  -1.3477612e-05   4.5151342e-06   3.1853873e-06   3.9224931e-07  -5.1407647e-06  -8.2660764e-06  -1.6676903e-05   2.9474449e-06   3.3288477e-05   5.3243542e-05  -1.8298112e-05  -8.2691666e-06   1.0637202e-05   1.1756780e-05   1.8062657e-05  -1.1561289e-05   2.8084221e-05  -5.2292347e-05  -3.5313414e-05  -7.4861514e-06  -3.7685166e-05  -1.8131130e-05  -1.5322769e-05  -4.7070268e-05  -2.6281153e-05  -2.3661363e-05  -1.7081718e-05  -1.5625613e-05  -3.0812351e-05   1.1064169e-05  -4.0397720e-05  -3.0794325e-05  -1.8097551e-05  -1.1780436e-05  -2.3392927e-05  -3.0809017e-05  -1.9594069e-05  -1.7701051e-05  -1.3004501e-05  -1.0343283e-05  -1.1778969e-05   4.8733749e-06  -1.6599028e-05  -2.7440309e-05  -1.2656569e-05  -1.1566459e-05  -8.0376064e-06  -1.5408438e-05  -1.5588350e-05  -2.2129899e-05  -4.3577189e-06   4.7771372e-06  -5.4058216e-06  -1.2294972e-05  -1.3696733e-05  -1.1802454e-05  -3.5466055e-05   8.3627773e-06  -6.1781149e-05  -1.5590324e-05  -1.3876402e-05  -3.8405098e-04  -5.3818273e-05  -1.2395398e-04   7.8937651e-06  -3.8925008e-05  -1.3829218e-05  -1.3688602e-04  -3.1918420e-04  -2.3795046e-04  -8.1142087e-06   4.2818714e-05  -2.2922873e-05  -2.9965562e-05  -1.1547003e-05  -5.7666714e-06   2.1713194e-06  -7.7542836e-09  -3.2879713e-05  -9.3801915e-06   2.5039131e-06  -5.3191111e-05  -2.6986689e-05   3.0980533e-05   3.9623382e-05   8.0405119e-05  -1.8416794e-05  -4.7560606e-05   2.2863146e-06   3.3623177e-05   2.2902858e-05   4.1535582e-05   1.0791523e-05  -5.3817524e-05  -5.3817511e-05  -1.5330193e-05  -6.2917765e-05  -4.8920962e-05  -1.7771466e-05  -9.5500477e-05   1.0464464e-04  -7.5644638e-05  -1.8170313e-05  -3.0669173e-05  -3.3086129e-05  -8.4187046e-05  -2.3131319e-04  -1.2817369e-04  -5.3592649e-05   1.4193931e-05  -2.6420588e-06  -2.3646808e-05  -4.0355383e-05  -4.2570685e-05  -3.6882003e-05  -3.0326569e-05  -3.2143492e-05   7.6741811e-06  -7.5910631e-06  -5.3805099e-05  -2.6218805e-05   2.9199020e-05   3.4765335e-05   5.8739687e-05  -3.3780207e-05  -3.4531364e-05   1.0086998e-05   1.3175121e-05   3.2334582e-06   5.6015311e-05   5.2031459e-05   4.6694997e-05   2.4956206e-04   1.3238366e-05  -5.4264304e-05   3.5259499e-05   7.0419313e-05  -3.9023993e-04  -7.4963910e-04  -1.7203003e-04   8.8157569e-05   9.2451778e-05   1.7670880e-04  -8.7665588e-06  -2.8457513e-05  -1.1899853e-04  -5.7415805e-05   2.4567259e-06   5.6180401e-05   7.3850059e-05   1.9639257e-04   1.3596644e-04   1.1692285e-04   5.9323143e-05   8.1602142e-05   6.5495258e-05   1.4797588e-04   4.5223835e-05   4.4710386e-05  -5.8141366e-05  -2.3574819e-04  -1.4945055e-04   3.1512261e-05   1.1118748e-05  -1.1554726e-05   9.5253854e-06  -1.4335606e-04  -1.4281939e-04  -5.0070237e-05   3.9261036e-05   1.3978297e-05   1.7757062e-05   3.4042737e-05   3.3292869e-05   2.7839462e-05   8.6881486e-05   7.6627418e-05   5.1480853e-05   4.8621987e-05   5.0883221e-05   4.2657291e-05   8.3847167e-05   9.5556006e-05   3.4207507e-05   4.2765347e-05   5.4993960e-05   2.1242037e-05   3.1908735e-05   2.8393987e-05   3.3261738e-05   7.4353780e-06   1.4191449e-05  -1.1583628e-05  -1.7065546e-05   4.0979584e-06   5.5136519e-05   1.9051108e-05  -1.1220051e-05  -7.7642689e-05  -3.9845314e-05   4.0851074e-06   4.0821680e-05   3.1497570e-05   5.1056258e-07  -1.9493488e-05  -2.5734484e-05  -3.5514674e-05   9.4895106e-05   6.4715688e-05   4.8971043e-05   2.6079575e-05   6.9191118e-05   2.1181946e-06   3.0662610e-06  -6.5210639e-05  -2.3636559e-05   2.3182087e-05   5.7993533e-06  -6.8357901e-06   1.4296885e-05   1.8755442e-05  -4.6103655e-05  -2.7623977e-05  -9.6460735e-06  -2.5928955e-05   3.5744587e-05  -3.5177157e-05   3.1396017e-05   8.4771857e-05   3.6585908e-05   3.6926557e-05   9.7196053e-05   2.8316064e-05   8.5077604e-05   8.0419930e-05   1.7290824e-05   5.2439608e-05   8.5306417e-05   5.3947991e-05   5.1676594e-05   2.5691702e-05   5.6863022e-05   1.2092885e-05  -1.1339794e-05  -5.2535408e-05
  -1.1170563e-05   2.0599035e-05  -4.7088461e-05  -7.1034113e-05   3.0328019e-06  -2.0903346e-05   3.0706889e-04  -1.1063387e-04   9.9156988e-05  -3.8084725e-05  -3.5820613e-05  -4.0440612e-05   2.1557576e-04   3.4736404e-04   1.9599601e-04   1.4770354e-05  -8.9817804e-05  -6.7928323e-05  -3.0567458e-05  -1.6484681e-05  -8.9179913e-06   2.8311583e-06   6.1350347e-06  -5.3099616e-05  -1.7641204e-05  -3.6542429e-05  -4.0694699e-05  -9.3276427e-06  -2.4333661e-05   9.0192548e-06   6.3015655e-05  -5.8607220e-05  -7.8267049e-05  -3.4593625e-05  -9.6349481e-06   8.1984961e-06   3.8390003e-05   4.8891177e-05   1.0109219e-04   2.1160183e-05   5.0419964e-05   9.2358233e-06   2.7108015e-05   5.8010643e-06   4.7152680e-06   4.0880839e-05  -1.1621522e-05   8.8311885e-07  -3.0996970e-05  -2.2136276e-05   2.2331247e-05  -3.0629517e-05  -1.0097404e-04  -3.2860750e-05  -3.4291977e-05   7.5055515e-06  -2.5263526e-06  -4.4494934e-05  -5.2079460e-05   6.4718796e-06   2.8644667e-06  -6.7502175e-05   4.6470961e-05  -8.1116708e-06  -3.0114696e-05   1.1093909e-05   2.8327072e-05   4.0369505e-05   8.4784536e-05   1.3449134e-05  -1.1118700e-05  -1.7697411e-05   3.8020848e-05  -8.2430966e-06   6.8677787e-05   7.5085535e-05  -1.3852457e-04  -5.5191112e-05  -2.0270553e-04   1.0245558e-06  -2.8109087e-04   5.1046658e-05  -4.9224502e-04   3.8576753e-04  -6.4757679e-04  -3.3424582e-04  -2.7164294e-04  -1.3743354e-04  -1.2896411e-03  -7.4534563e-04  -8.1792384e-05  -4.1379916e-04  -2.5324331e-04  -1.2353064e-04  -2.7446370e-04  -2.1276734e-04  -2.0379451e-04  -9.1516415e-05  -6.5534456e-05  -1.0781404e-04   1.1915778e-04   1.1112376e-04   4.5562113e-05  -1.3214968e-04   1.4280676e-04  -3.4103804e-04  -8.7884122e-04   1.6103790e-04   1.9416223e-04   1.8569061e-04   2.7590563e-04  -2.4109591e-04   6.1259307e-05   3.4542944e-04  -2.5016193e-05  -2.2598279e-05  -1.5761113e-05  -1.8425856e-05  -2.3196940e-05  -2.3088762e-05  -4.3112775e-05   1.6717650e-06  -1.2051519e-05  -1.8300574e-05  -2.3572001e-05  -3.5441911e-05   3.1395685e-05  -5.0939969e-05  -3.3257008e-05  -1.3003800e-05  -4.4894215e-06  -3.5009109e-05  -3.7507660e-05  -3.2941043e-05  -2.1677008e-05  -3.6946880e-06  -7.7855115e-06  -1.5389824e-05  -1.4352875e-05  -1.2458625e-05  -2.2985502e-05  -2.0644193e-05  -1.3913595e-05  -5.0660292e-06  -3.6015495e-05  -4.0041289e-05  -3.0473544e-05   1.3956130e-06  -5.5527361e-06   9.8438011e-07  -1.3803327e-05  -1.5345109e-05  -7.3249263e-05  -6.0215063e-05   3.8565886e-05  -3.1135293e-05  -9.9708815e-06  -4.4232390e-06  -1.6832998e-04   1.6934753e-04  -4.1085441e-05   2.3651735e-05  -6.9897880e-06   2.0339266e-06  -2.2495390e-05  -1.3190894e-04  -1.3297513e-04   1.5146360e-06   2.4429701e-05  -2.4968461e-05  -4.2801468e-05  -1.5747339e-05   9.9024294e-06  -1.4095424e-05   3.5303001e-06   4.6751613e-06  -1.3347206e-06  -4.8583738e-06  -8.2364796e-06  -1.7226391e-05   2.4117990e-06   3.3996428e-05   4.6119987e-05  -1.7169736e-05  -4.7123762e-06   1.0524341e-05   1.0819632e-05   1.7273927e-05  -1.3729780e-05   2.3904365e-05  -5.4444051e-05  -3.8303700e-05  -8.2204057e-06  -3.8293804e-05  -2.0684601e-05  -1.5562936e-05  -5.7333065e-05  -2.3903951e-05  -2.6472541e-05  -1.8248882e-05  -1.4840525e-05  -3.0368790e-05  -3.6296857e-07  -5.2879353e-05  -3.7517724e-05  -2.0016251e-05  -9.0917123e-06  -2.0641010e-05  -2.9114253e-05  -2.0538078e-05  -1.9447342e-05  -1.5254511e-05  -1.1878006e-05  -1.1614077e-05   2.4169016e-06  -1.7390721e-05  -2.7210712e-05  -1.4858805e-05  -1.1156497e-05  -8.9900847e-06  -2.3270059e-05  -1.3831232e-05  -1.9310027e-05  -4.7034102e-06   2.8625157e-06  -5.9263230e-06  -1.4737000e-05  -2.0337280e-05  -6.1130492e-06  -3.4106018e-05   2.0579791e-05  -4.7559400e-05  -1.4824148e-05  -1.1774908e-05  -4.3923599e-04   1.8414256e-05  -1.3868485e-04   1.9858564e-05  -3.5208307e-05  -9.6761366e-06  -1.6436261e-04  -3.8005142e-04  -2.8837057e-04  -3.6247093e-07   6.4336855e-05  -1.2857657e-05  -2.3855620e-05  -6.0967598e-06  -2.5111833e-06   6.1907200e-06   1.4892395e-06  -2.4962681e-05  -5.6588853e-06   8.2062510e-06  -4.4737984e-05  -2.2414262e-05   3.4887053e-05   4.0471493e-05   8.7509139e-05  -1.0634731e-05  -3.6785376e-05   7.4534952e-06   3.5477240e-05   2.5160899e-05   3.8030305e-05   1.1808909e-05  -5.1439800e-05  -5.4837851e-05  -1.6189945e-05  -5.4514969e-05  -4.9631377e-05  -1.4486884e-05  -9.5995210e-05   9.0383333e-05  -7.8630859e-05  -1.9490347e-05  -2.7569319e-05  -2.8486385e-05  -1.0601329e-04  -2.3155921e-04  -1.2381842e-04  -5.4200964e-05   1.4938904e-05   5.3799143e-06  -1.9665200e-05  -3.9917250e-05  -4.4476583e-05  -3.8784223e-05  -3.1393299e-05  -2.8166648e-05   1.3073138e-05  -2.1101224e-06  -4.8288771e-05  -2.4893501e-05   3.4474063e-05   3.3675572e-05   5.1793883e-05  -2.6213791e-05  -2.2517049e-05   1.6367344e-05   1.5622328e-05   2.4818608e-06   5.9857202e-05   5.6528131e-05   4.6551290e-05   2.5321042e-04   1.3626800e-05  -6.5437745e-05   3.5673639e-05   7.2288846e-05  -4.0137770e-04  -7.9675116e-04  -1.7473414e-04   8.6896893e-05   9.3464216e-05   1.7897979e-04  -1.1955757e-06  -3.4646177e-05  -1.1971487e-04  -6.3282904e-05   1.1392173e-06   5.7011284e-05   6.9318836e-05   2.0097046e-04   1.3552364e-04   1.1562229e-04   6.1357095e-05   7.9105150e-05   7.8191236e-05   1.5798428e-04   5.6467115e-05   4.2124608e-05  -5.8467933e-05  -2.4699802e-04  -1.5918521e-04   4.1848246e-05   2.1973515e-05  -7.6871984e-06   7.3882220e-06  -1.5083045e-04  -1.5152757e-04  -4.4761364e-05   4.6412509e-05   1.8914280e-05   2.1097827e-05   3.6988175e-05   3.6688012e-05   3.4205136e-05   7.8891422e-05   7.4091870e-05   5.1850402e-05   5.4654869e-05   6.1385267e-05   5.3863779e-05   8.4407170e-05   9.3709881e-05   3.5220768e-05   4.5899090e-05   6.0080740e-05   3.2200458e-05   4.1417398e-05   3.9187469e-05   3.9452742e-05   9.1182447e-06   1.7928626e-05  -9.2296001e-06  -1.4864168e-05   1.0334153e-05   6.5104603e-05   1.9557506e-05  -1.2210728e-05  -9.1820233e-05  -5.0295509e-05   1.4273020e-05   5.4118319e-05   3.6381132e-05  -2.2547418e-06  -2.3507366e-05  -3.3608016e-05  -3.8443756e-05   9.8401732e-05   7.1667690e-05   6.5256426e-05   3.2522261e-05   7.9374247e-05   1.0395929e-05  -3.2730334e-06  -7.0441349e-05  -2.4501185e-05   2.8709567e-05   1.7674838e-05   2.0156561e-06   2.6070821e-05   1.8658572e-05  -4.8502214e-05  -2.3284896e-05  -8.8029246e-06  -2.1501197e-05   4.4453490e-05  -2.4715152e-05   4.1235648e-05   8.8580414e-05   4.5187982e-05   4.2216364e-05   1.0229531e-04   3.4806935e-05   9.3378418e-05   8.4304593e-05   2.2029335e-05   4.4907235e-05   8.4403640e-05   6.3706942e-05   5.5158074e-05   2.5587469e-05   6.1353055e-05   4.8256074e-06  -1.5982673e-05  -5.0591109e-05
  -1.6852921e-05   1.5588939e-05  -4.8424169e-05  -7.7252527e-05  -2.3036040e-07  -2.2900741e-05   2.9853863e-04  -1.0502357e-04   9.5618795e-05  -4.0419608e-05  -3.8704307e-05  -4.3272313e-05   2.1165981e-04   3.3875759e-04   1.9285082e-04   1.2751494e-05  -9.0024618e-05  -7.0981862e-05  -3.3925701e-05  -1.9550911e-05  -1.0881363e-05   1.3453135e-07   4.6398280e-06  -5.5853027e-05  -1.9472496e-05  -3.8426378e-05  -4.4268484e-05  -1.2577880e-05  -2.3779331e-05   1.2539217e-05   6.4682889e-05  -6.0863591e-05  -8.1279852e-05  -3.4490802e-05  -9.2632902e-06   9.8688144e-06   4.0129243e-05   4.7508686e-05   1.0209454e-04   2.2878241e-05   5.9051793e-05   9.0331807e-06   3.2317716e-05   1.3257947e-05   1.3967173e-05   4.3636459e-05  -4.4343918e-07   7.0865689e-06  -2.3157859e-05  -1.2705668e-05   3.0710461e-05  -2.4851787e-05  -8.5094639e-05  -2.5248250e-05  -3.5511795e-05   8.1432540e-06   2.6688719e-06  -3.7939112e-05  -4.8067353e-05   6.4107132e-06   8.0625407e-06  -7.0123410e-05   4.6979611e-05  -3.6496247e-06  -2.3912807e-05   1.2581983e-05   3.9098427e-05   6.9770641e-05   9.6185453e-05   1.7819787e-05  -5.7407631e-06  -1.2383793e-05   5.0895077e-05   6.7714701e-06   8.2599254e-05   9.1505232e-05  -1.2730035e-04  -5.0005399e-05  -1.9631296e-04  -3.7580521e-06  -2.7240831e-04   5.3487912e-05  -4.9450260e-04   3.6895778e-04  -6.4009594e-04  -3.2792767e-04  -2.7124663e-04  -1.3227414e-04  -1.2573842e-03  -7.3113342e-04  -7.9769624e-05  -4.0781906e-04  -2.5077522e-04  -1.2873218e-04  -2.7129912e-04  -2.0060651e-04  -1.9305519e-04  -8.4569185e-05  -5.9802318e-05  -9.8098323e-05   1.2065668e-04   1.1203100e-04   5.1724413e-05  -1.3052595e-04   1.4146628e-04  -3.3789113e-04  -8.6582372e-04   1.5721494e-04   1.9477221e-04   1.8413717e-04   2.7178215e-04  -2.3562447e-04   6.0059730e-05   3.3963609e-04  -2.2294030e-05  -2.2446268e-05  -1.4636981e-05  -1.5180054e-05  -2.3850017e-05  -2.0690720e-05  -5.5399345e-05  -1.2361191e-06  -1.4501313e-05  -1.6701661e-05  -1.9431324e-05  -2.9589498e-05   2.2044699e-05  -6.5106941e-05  -3.9450107e-05  -1.3499903e-05   7.3662673e-07  -2.8429265e-05  -3.2681560e-05  -2.8991862e-05  -1.9380605e-05  -3.8581070e-06  -7.7352181e-06  -1.2596358e-05  -1.2311739e-05  -8.8833674e-06  -1.8721249e-05  -1.9323583e-05  -1.2441446e-05  -5.4213950e-06  -4.3646743e-05  -3.3782166e-05  -2.2305617e-05   4.7422983e-06  -4.5673788e-06   4.1352435e-07  -1.7376202e-05  -1.8788662e-05  -7.3165621e-05  -6.0702027e-05   4.1763882e-05  -2.7000740e-05  -9.0825945e-06  -3.1357309e-06  -1.6724555e-04   1.6162984e-04  -3.9179172e-05   2.6265248e-05  -3.9474832e-06   5.4901838e-06  -2.2542531e-05  -1.2998425e-04  -1.3160417e-04   2.2480122e-06   2.5200428e-05  -2.1243998e-05  -4.1258452e-05  -1.4936493e-05   1.0678496e-05  -1.4531166e-05   2.7796338e-06   5.8637575e-06  -3.3227473e-06  -4.5110702e-06  -8.0894303e-06  -1.7858117e-05   1.5221748e-06   3.4437667e-05   3.8344411e-05  -1.5943551e-05  -1.4065940e-06   9.8194407e-06   9.5251570e-06   1.6309496e-05  -1.5901736e-05   1.9149574e-05  -5.6195329e-05  -4.0767133e-05  -8.6963396e-06  -3.9042090e-05  -2.2685954e-05  -1.5563462e-05  -6.8182129e-05  -2.0899620e-05  -2.9332924e-05  -1.9033990e-05  -1.3989052e-05  -2.9736467e-05  -1.1907862e-05  -6.5419237e-05  -4.4537742e-05  -2.1600218e-05  -6.3893371e-06  -1.7810498e-05  -2.7014114e-05  -2.0980603e-05  -2.0630240e-05  -1.7146445e-05  -1.2973223e-05  -1.1925725e-05   4.9299842e-07  -1.7876762e-05  -2.6742176e-05  -1.7015057e-05  -1.0661005e-05  -1.0396859e-05  -3.0501546e-05  -1.1996871e-05  -1.6514467e-05  -5.3903588e-06   1.1358046e-06  -6.2179956e-06  -1.7117258e-05  -2.7535539e-05   1.2399476e-07  -3.1850822e-05   3.3892042e-05  -3.2449207e-05  -1.3979260e-05  -9.4411752e-06  -4.9588490e-04   9.1669855e-05  -1.5309306e-04   3.2654617e-05  -3.0885756e-05  -5.0595654e-06  -1.9095873e-04  -4.4259862e-04  -3.4008533e-04   7.7039171e-06   8.6250567e-05  -2.0335455e-06  -1.6726642e-05  -2.9147915e-07   1.2022990e-06   1.0490623e-05   3.2810041e-06  -1.6370780e-05  -1.7246804e-06   1.4276633e-05  -3.5235896e-05  -1.7335569e-05   3.8261623e-05   4.0528248e-05   9.3383669e-05  -1.9497235e-06  -2.4755281e-05   1.2852099e-05   3.6390120e-05   2.6833665e-05   3.3624276e-05   1.1903858e-05  -4.8070063e-05  -5.4891296e-05  -1.7300202e-05  -4.5810098e-05  -4.9657605e-05  -1.0644394e-05  -9.4988686e-05   7.1137739e-05  -8.0839136e-05  -2.0607799e-05  -2.3802752e-05  -2.3095704e-05  -1.2643672e-04  -2.2705614e-04  -1.1712761e-04  -5.4007353e-05   1.5519677e-05   1.3874812e-05  -1.4681294e-05  -3.8426943e-05  -4.5611457e-05  -4.0161894e-05  -3.1930239e-05  -2.3684646e-05   1.8736868e-05   3.8482090e-06  -4.1493777e-05  -2.2985042e-05   3.9627023e-05   3.2119740e-05   4.4487550e-05  -1.8098872e-05  -9.5963315e-06   2.2924777e-05   1.8182854e-05   1.6622652e-06   6.3695638e-05   6.0866352e-05   4.8142113e-05   2.5737435e-04   1.6548468e-05  -7.2980861e-05   3.7383067e-05   7.5117707e-05  -4.1246710e-04  -8.2806341e-04  -1.7773483e-04   8.7300345e-05   9.5258317e-05   1.8220944e-04   6.1078851e-06  -4.8169681e-05  -1.2531038e-04  -7.0231539e-05   1.8675225e-06   5.8641152e-05   6.5090625e-05   2.0462397e-04   1.3430048e-04   1.1405180e-04   6.3358536e-05   7.7080520e-05   9.2085681e-05   1.6822999e-04   6.8311238e-05   3.9677547e-05  -5.8356989e-05  -2.5857879e-04  -1.6932672e-04   5.3938209e-05   3.4602108e-05  -1.9107065e-06   5.6869576e-06  -1.5860022e-04  -1.5892456e-04  -3.6140169e-05   5.2426586e-05   2.3404505e-05   2.5734332e-05   3.8920629e-05   4.0543511e-05   4.0543773e-05   7.1146777e-05   7.2284782e-05   5.2132679e-05   6.0649936e-05   7.1648231e-05   6.4307919e-05   8.5251511e-05   9.2144924e-05   3.5986650e-05   4.8889138e-05   6.4416152e-05   4.2545438e-05   5.0337939e-05   4.9957832e-05   4.5770146e-05   1.1152754e-05   2.1923029e-05  -8.3376982e-06  -1.0831244e-05   1.6140085e-05   7.3958877e-05   1.9954806e-05  -1.3954172e-05  -1.0630803e-04  -6.0864581e-05   2.3703008e-05   6.5910622e-05   4.0238682e-05  -4.2586736e-06  -2.7665175e-05  -4.1797203e-05  -4.2400213e-05   1.0313556e-04   8.0314287e-05   7.2411151e-05   4.0191469e-05   8.6162151e-05   1.7477929e-05  -8.2849914e-06  -7.8382657e-05  -2.4746992e-05   3.5320731e-05   2.8694129e-05   1.2022906e-05   3.8023324e-05   1.8588990e-05  -5.1092290e-05  -2.1608481e-05  -6.3985626e-06  -1.4873625e-05   5.3694355e-05  -1.4088005e-05   4.9396085e-05   8.9297172e-05   4.9950765e-05   4.8843480e-05   9.5774564e-05   4.1481171e-05   1.0083845e-04   8.7999244e-05   2.7275115e-05   3.4091049e-05   8.1340062e-05   7.1904939e-05   5.9057438e-05   2.6326846e-05   5.9617015e-05  -4.2446268e-06  -2.2139343e-05  -4.8451984e-05
  -2.1956907e-05   1.0618537e-05  -4.9476939e-05  -8.2114399e-05  -3.2085888e-06  -2.4543233e-05   2.8784863e-04  -1.0039279e-04   9.1252896e-05  -4.2509063e-05  -4.1193618e-05  -4.5696858e-05   2.0574406e-04   3.2793129e-04   1.8855215e-04   1.0541745e-05  -8.9601251e-05  -7.3434635e-05  -3.6951616e-05  -2.2369807e-05  -1.2643556e-05  -2.4013544e-06   3.1275496e-06  -5.7851556e-05  -2.0978463e-05  -3.9868652e-05  -4.7434971e-05  -1.5489940e-05  -2.2868002e-05   1.5829898e-05   6.5901132e-05  -6.2489921e-05  -8.3564832e-05  -3.4195758e-05  -8.7291148e-06   1.1384445e-05   4.1581821e-05   4.5531207e-05   1.0491301e-04   2.6333410e-05   6.3827801e-05   9.5098368e-06   3.6291546e-05   2.0470168e-05   2.2769366e-05   4.5172618e-05   1.1337391e-05   1.3885810e-05  -1.5060985e-05  -2.1880112e-06   3.6112944e-05  -1.9269255e-05  -6.9009388e-05  -1.8181338e-05  -3.4805746e-05   1.1030805e-05   9.2919642e-06  -3.0037318e-05  -4.3347583e-05   4.9547468e-06   1.1663288e-05  -7.0506687e-05   4.3531590e-05   1.5156090e-06  -1.7246495e-05   1.8257315e-05   4.9863298e-05   1.0559605e-04   1.0266212e-04   2.2542304e-05   1.6704073e-06  -4.1079140e-06   6.5343943e-05   1.8818980e-05   9.6218431e-05   1.0766827e-04  -1.1821859e-04  -4.4476275e-05  -1.9110701e-04  -8.3698014e-06  -2.6489011e-04   5.4809292e-05  -4.9669715e-04   3.5307965e-04  -6.3346263e-04  -3.2261478e-04  -2.7139840e-04  -1.2910770e-04  -1.2277685e-03  -7.1848463e-04  -7.7732043e-05  -4.0202833e-04  -2.4939625e-04  -1.3417853e-04  -2.6917047e-04  -1.8877783e-04  -1.8254882e-04  -7.7803258e-05  -5.3933567e-05  -8.9843180e-05   1.2203980e-04   1.1263935e-04   5.7292660e-05  -1.2959167e-04   1.3893955e-04  -3.3695777e-04  -8.5550763e-04   1.5288812e-04   1.9446718e-04   1.8145154e-04   2.6693481e-04  -2.3192546e-04   5.7269615e-05   3.3471711e-04  -1.9445330e-05  -2.1671119e-05  -1.3321489e-05  -1.2253317e-05  -2.3762573e-05  -1.7855240e-05  -6.7425373e-05  -4.4627511e-06  -1.6468200e-05  -1.4586015e-05  -1.4803692e-05  -2.3169245e-05   1.3195420e-05  -7.8436274e-05  -4.5403121e-05  -1.3549856e-05   5.9197206e-06  -2.1682356e-05  -2.7445146e-05  -2.4417962e-05  -1.6455227e-05  -3.5957916e-06  -7.2543414e-06  -1.0099379e-05  -9.7503020e-06  -5.2209091e-06  -1.4327818e-05  -1.7848474e-05  -1.1083763e-05  -6.1708966e-06  -5.0944678e-05  -2.7355563e-05  -1.4233820e-05   7.7552117e-06  -3.2817564e-06  -1.3981737e-07  -2.1174492e-05  -2.2155354e-05  -7.2844518e-05  -6.0639307e-05   4.4092386e-05  -2.3379884e-05  -8.0623570e-06  -2.0039173e-06  -1.6195278e-04   1.4863384e-04  -3.6104910e-05   2.8177177e-05  -9.8200474e-07   8.6666370e-06  -2.0024102e-05  -1.2356938e-04  -1.2670953e-04   2.4021570e-06   2.4721346e-05  -1.7738131e-05  -3.9266606e-05  -1.3725029e-05   1.1483741e-05  -1.4785381e-05   2.2620178e-06   6.6954851e-06  -5.5096530e-06  -4.1553050e-06  -7.9054212e-06  -1.8572072e-05   2.7846658e-07   3.4552620e-05   3.0066128e-05  -1.4690483e-05   1.4213359e-06   8.4683545e-06   7.8759160e-06   1.5143122e-05  -1.8100881e-05   1.3887170e-05  -5.7499811e-05  -4.2644090e-05  -8.8689612e-06  -3.9822055e-05  -2.4055076e-05  -1.5364970e-05  -7.9375671e-05  -1.7693770e-05  -3.2235358e-05  -1.9459176e-05  -1.3171755e-05  -2.9055276e-05  -2.3199322e-05  -7.7651299e-05  -5.1740912e-05  -2.2865405e-05  -3.8457641e-06  -1.5095888e-05  -2.4672337e-05  -2.1017536e-05  -2.1281523e-05  -1.8619565e-05  -1.3622200e-05  -1.2693047e-05  -7.9133146e-07  -1.8092876e-05  -2.6142004e-05  -1.9014659e-05  -1.0093753e-05  -1.2127590e-05  -3.6820646e-05  -1.0239148e-05  -1.3932057e-05  -6.3999724e-06  -2.7486999e-07  -6.2820154e-06  -1.9305027e-05  -3.4994662e-05   6.9853734e-06  -2.8612774e-05   4.8100940e-05  -1.6633431e-05  -1.2818589e-05  -6.7548918e-06  -5.5191288e-04   1.6219740e-04  -1.6660397e-04   4.6117597e-05  -2.5797675e-05   2.0028973e-07  -2.1538315e-04  -5.0443405e-04  -3.9118690e-04   1.5801658e-05   1.0783291e-04   9.4188354e-06  -8.5867744e-06   5.9187908e-06   5.4428177e-06   1.5068097e-05   5.4144544e-06  -7.1604257e-06   2.4670179e-06   2.0701157e-05  -2.4762127e-05  -1.1768965e-05   4.1039091e-05   3.9667451e-05   9.7871735e-05   7.5908735e-06  -1.1580742e-05   1.8418090e-05   3.6393569e-05   2.7832766e-05   2.8389438e-05   1.1192233e-05  -4.3792406e-05  -5.3991353e-05  -1.8623914e-05  -3.7020607e-05  -4.9007942e-05  -6.3624355e-06  -9.2724480e-05   4.8346965e-05  -8.2274262e-05  -2.1498954e-05  -1.9512170e-05  -1.7164107e-05  -1.4505723e-04  -2.1856450e-04  -1.0858183e-04  -5.2950221e-05   1.6042926e-05   2.2575594e-05  -8.8591678e-06  -3.5942591e-05  -4.5918297e-05  -4.0963765e-05  -3.1928061e-05  -1.8784312e-05   2.4518489e-05   1.0112034e-05  -3.3642904e-05  -2.0509561e-05   4.4562494e-05   3.0224505e-05   3.7253974e-05  -9.6473591e-06   3.8353356e-06   2.9547529e-05   2.0807093e-05   8.4878801e-07   6.7439452e-05   6.4988701e-05   5.1679763e-05   2.6211918e-04   2.2260168e-05  -7.6195234e-05   4.0373410e-05   7.8916529e-05  -4.2458480e-04  -8.4032067e-04  -1.8176167e-04   8.9816713e-05   9.7933261e-05   1.8651207e-04   1.2027924e-05  -7.1388356e-05  -1.3710214e-04  -7.8247112e-05   5.2507191e-06   6.1388038e-05   6.1592468e-05   2.0748799e-04   1.3259627e-04   1.1246752e-04   6.5344909e-05   7.5914497e-05   1.0703106e-04   1.7874473e-04   8.0678642e-05   3.7712581e-05  -5.7770271e-05  -2.7031749e-04  -1.7948983e-04   6.7691060e-05   4.9006482e-05   5.6827193e-06   4.6040477e-06  -1.6650125e-04  -1.6482948e-04  -2.4587054e-05   5.7149051e-05   2.7380224e-05   3.1458715e-05   3.9850436e-05   4.4718884e-05   4.6603483e-05   6.4024627e-05   7.1302906e-05   5.2314902e-05   6.6466058e-05   8.1295318e-05   7.3559521e-05   8.6463601e-05   9.0929086e-05   3.6240349e-05   5.1577089e-05   6.7952328e-05   5.1900382e-05   5.8284828e-05   6.0331182e-05   5.1987608e-05   1.3446782e-05   2.5988272e-05  -8.8565308e-06  -5.1603695e-06   2.1326296e-05   8.1429236e-05   2.0441551e-05  -1.6485175e-05  -1.2072053e-04  -7.1534844e-05   3.1994618e-05   7.5802619e-05   4.3016967e-05  -5.4142798e-06  -3.2184547e-05  -5.0109818e-05  -4.7216988e-05   1.1004444e-04   9.1119846e-05   6.8469488e-05   4.9559068e-05   8.8977699e-05   2.3139547e-05  -1.1839017e-05  -8.9277702e-05  -2.4446684e-05   4.3372293e-05   3.8567732e-05   2.3592281e-05   4.9209622e-05   1.8242935e-05  -5.3906028e-05  -2.3034690e-05  -1.9150411e-06  -5.3194017e-06   6.3735635e-05  -3.3122499e-06   5.5526247e-05   8.6787800e-05   5.0148504e-05   5.7249201e-05   7.6371793e-05   4.8642692e-05   1.0768061e-04   9.1815447e-05   3.3039769e-05   1.9792961e-05   7.6007553e-05   7.8447323e-05   6.4053522e-05   2.8486647e-05   5.0721156e-05  -1.5019647e-05  -2.9752090e-05  -4.6155649e-05
