  -7.4995527e-05  -1.0902658e-04  -1.3394272e-04  -1.0284000e-04  -6.7380756e-05  -7.6575487e-05   1.0125312e-05   3.2240667e-05  -4.2959057e-05  -5.5782849e-05  -1.1083360e-04  -8.3961723e-05  -7.4622656e-06  -6.2574931e-06   5.0359628e-05  -1.0616193e-05  -1.0894695e-04  -9.8364087e-05  -1.0327423e-04  -1.5529246e-04  -1.7141113e-04  -7.9983738e-05  -9.3789772e-05  -9.0229583e-05  -6.9125900e-05  -7.9253539e-05   1.6104048e-06  -4.6215380e-05  -6.3968737e-05  -6.5190481e-06  -2.0216171e-06  -9.6635752e-05  -8.2051267e-05  -6.8169530e-05  -1.0872979e-04  -3.1793533e-05  -1.0310453e-04  -8.1649391e-05   9.4666455e-05   1.2144391e-04   9.3791421e-06  -1.0458920e-05   2.1663782e-05   7.5303625e-05   1.0936984e-05   2.7095274e-05  -5.0610209e-05   5.0240995e-05   1.3499374e-04   1.2282996e-04   5.5965774e-06   1.0378278e-05  -8.8117533e-06  -9.2620609e-05   7.9453907e-05   1.1866682e-04   9.7463574e-05   1.6742171e-04   1.7520854e-04   6.3386036e-05   1.1457274e-04   3.7533197e-05   3.9400767e-05   1.3110552e-04   9.0162941e-05   8.2758296e-05   9.9725377e-05   1.8207938e-05   1.5538261e-05   1.4318045e-04   1.1363820e-04   1.2445557e-04   2.0445601e-04   9.0800577e-05   4.7979446e-05  -3.5798841e-05   6.6660437e-05   2.4221120e-05  -1.6748573e-04   2.5130550e-04  -3.0061977e-06  -2.9259048e-04  -3.3318667e-05  -3.8107122e-04  -1.8002263e-04  -2.8872966e-04  -2.3086031e-04  -2.4774528e-04   2.1110074e-04  -2.8649285e-04  -3.2340687e-04  -2.6728665e-04  -2.9586173e-04  -9.0264890e-05  -1.6729521e-04  -1.0580970e-04   8.5052399e-05  -1.8308645e-04  -1.0922777e-04  -3.2984886e-04  -1.9790098e-04  -1.5937926e-04   1.4178224e-04  -9.8701979e-05  -2.6114470e-04  -2.8698608e-04  -3.9695637e-04   1.3343626e-05  -2.1565526e-04  -1.0558639e-04  -1.8258905e-04  -2.7953162e-04  -2.9925394e-04  -9.9073926e-06   8.6326354e-05   4.7595102e-05   4.8878612e-05   1.5634813e-04   1.1671508e-04   3.3681126e-05  -1.6033502e-05  -1.2503908e-04  -3.6584676e-06   8.4769640e-05   6.1327720e-05   6.7886373e-05   9.1749768e-05  -3.2247203e-05  -3.5965779e-05  -2.9936958e-05   4.0852263e-05   6.0980226e-05   5.1721773e-05   7.6209958e-05   8.7694068e-05   4.6999958e-05   6.6439340e-05   3.1350617e-05  -7.8299986e-06  -3.8107504e-06   9.3743650e-05   2.6322945e-05  -1.9638913e-05  -1.8138604e-05   1.4985292e-05   9.3998757e-05   1.1226266e-04   6.3682166e-05   7.7669326e-05   4.1368842e-05   1.1996176e-05   1.0420406e-05   1.0815767e-04   1.4765426e-04   8.1779607e-05   2.0191328e-04   1.7850741e-04   1.0965198e-04   1.5675691e-04   1.0993841e-04   3.6971078e-05   9.4033908e-05   1.6566855e-04   1.7348246e-04   1.6995957e-04   1.3410602e-04   1.1524264e-04   1.3265466e-04   1.3975439e-04   1.8685186e-04   2.2003968e-04   1.6813053e-04   2.1097461e-04   1.5555794e-04   1.4528687e-04   1.4167909e-04   1.2242871e-04   1.8096356e-04   1.4857792e-04   1.3712341e-04   9.1936613e-05   1.7004599e-04   2.1227865e-04   2.3447527e-04   2.1794751e-04   9.0659132e-05   1.2847233e-04   1.1736674e-04   1.4862752e-04   1.0962942e-04   1.1936062e-05  -6.1073429e-05  -4.6403036e-05   1.2491021e-05   3.4100789e-05  -1.8640599e-05  -9.4273054e-05  -1.9954093e-04  -6.3999545e-05  -4.2718563e-05  -5.1338239e-05  -3.2417149e-06   6.4582614e-05  -4.2705899e-05  -6.2965521e-05  -6.2415540e-05  -3.4994001e-05   7.4604759e-06   1.8406154e-05   4.1977898e-05   6.2686837e-05  -1.9194837e-05   3.3690022e-05  -3.9679501e-05  -6.3849620e-05   4.0803280e-05   1.1314724e-04   1.0981403e-06  -4.6423356e-05  -6.9288675e-05  -9.3347303e-05   9.0541632e-05   7.0577784e-05   1.9718748e-05  -1.3652495e-05  -3.8658661e-05  -9.8084034e-05  -4.6910928e-05   2.1386645e-05   5.7090530e-06   9.8562577e-05  -1.2863350e-05  -5.1598571e-05  -2.0258999e-05   2.7979088e-04   1.1308184e-04   1.3164968e-05   1.1289695e-04   8.3954512e-05   1.5907351e-05   1.0366183e-04   2.4099883e-05  -2.5086513e-05  -9.9995605e-05   6.4918376e-05  -5.3953795e-05  -1.0318553e-04  -1.2936440e-04  -1.3025957e-04  -1.3184847e-05  -4.7940394e-05  -1.8055656e-05   6.8844119e-05  -1.3390867e-04  -2.7880833e-05  -4.1148360e-06  -3.8037640e-05  -6.4788676e-05   1.1559610e-04  -1.4337175e-04  -9.8158889e-05  -8.0181797e-06  -3.5609363e-05  -1.2938172e-05   1.1088709e-04   9.3337751e-05   7.4459593e-05   1.0483239e-04  -4.4714563e-05   1.2537555e-04   3.4164254e-05   3.4993850e-05   4.3055063e-05   5.1786084e-05  -1.4988327e-05  -3.4771458e-05   7.8884498e-05   8.1510257e-05   6.5287725e-05  -2.0270606e-05   5.7887475e-05  -1.3053496e-04   1.5626424e-04   1.7200860e-04   1.8657743e-04   1.8475041e-04   1.7787396e-04   6.7528736e-05   8.0317350e-05   1.4948650e-05  -7.8649598e-05   2.4949244e-05  -6.8045647e-06  -3.4673682e-06  -6.4961390e-05  -1.3156835e-05  -5.6534382e-05   1.0932383e-04   4.2578028e-05   6.8481297e-05   3.3158322e-05  -5.2369432e-05   6.1552515e-05   3.1729960e-05   2.4184296e-04   1.1623490e-04  -1.2897003e-04   1.6939427e-04   2.0265174e-04   6.6962757e-05   2.5684743e-06  -2.6438714e-04  -9.6734432e-05  -2.3761406e-05   1.1192009e-04   1.1514301e-04   1.9421879e-04  -2.2775991e-04  -3.9417548e-05  -1.5125284e-04   1.3212715e-05   1.2949606e-04   1.4444280e-04   2.4227688e-04   2.8663429e-04   4.5912369e-05   1.0397453e-04  -2.2657434e-06  -3.3323897e-05   9.6148037e-05   2.1084635e-04   1.0759009e-05  -1.0394721e-04  -1.8641745e-04  -6.5489973e-05   3.3160306e-04   2.1463836e-04   2.9800383e-05  -2.4439803e-05  -1.7292200e-04  -4.1862519e-04  -1.1206689e-04  -2.5802969e-05  -2.8980770e-05  -5.1952479e-05  -2.0339698e-05   8.6416843e-05  -3.9077643e-05  -2.0464813e-04  -2.1493647e-04  -8.3625145e-05  -1.4309515e-04  -1.4429770e-04  -4.3847511e-05   4.6178831e-05   3.8730255e-05   4.6459540e-05  -2.3288951e-05  -1.3888044e-04   3.2572267e-05   2.5817456e-05   9.8485825e-05   1.0195258e-04   6.1882326e-05   1.0316646e-04   1.2092624e-04   4.6639950e-05   2.9380037e-06   5.9142351e-05   4.5590144e-05   1.3942960e-04   2.4113877e-04   1.1555996e-04   9.8167210e-05   1.3209262e-04   9.9422195e-05   1.1771357e-04   1.4239094e-04   2.3807637e-04   6.0582432e-05  -1.6575263e-04  -1.4571475e-04  -8.9728418e-05  -3.8642699e-04  -2.1983628e-04  -2.1035291e-04  -1.5380305e-04  -1.8233766e-04  -1.7031348e-04  -9.5581527e-05  -2.6905753e-04  -2.3988923e-04  -6.4112713e-05  -1.2472895e-04  -1.0753856e-04  -1.6777715e-04  -3.1022274e-04  -3.3461982e-04  -4.2413685e-04  -3.4618923e-04  -3.0618537e-04  -1.4648188e-04  -1.8950548e-04  -1.4932303e-04  -8.7026174e-05  -2.9661796e-04  -2.1572831e-04  -1.4905833e-04  -3.7986319e-05  -9.6433037e-05  -2.5305360e-05  -3.5004367e-04  -3.4411923e-04  -1.5946043e-04  -1.0759507e-04  -8.4342614e-05  -9.7307162e-05  -6.0883155e-05   2.0567248e-04   1.8885408e-04   2.7445198e-05   7.6996061e-05   5.1135283e-06   2.2614022e-04   2.0818115e-04   2.5746658e-04   6.6417597e-06   2.4815117e-04   5.1615356e-04   4.1232853e-04   2.3985475e-04   3.9483021e-05  -4.8384884e-05   2.6126718e-05   5.2743737e-04   4.4153770e-04   5.2602858e-04   8.4018231e-05   1.0021568e-04   9.9785031e-05   2.0260862e-05   1.4708751e-04  -6.4871483e-05   6.3802221e-05  -1.3879078e-04   9.4409247e-05   1.5776053e-04   1.2712498e-04  -4.5477087e-05   4.5817816e-05   4.3120159e-05   2.4493334e-04   3.9243193e-04   3.4355184e-04   2.7675787e-04   3.3082211e-04
  -7.5065670e-05  -1.1828782e-04  -1.4486031e-04  -1.1431523e-04  -7.3908888e-05  -7.9574653e-05   1.6208341e-05   4.0413370e-05  -4.4070295e-05  -5.4470369e-05  -1.1189147e-04  -8.2497305e-05   2.9467820e-06   1.0831337e-06   6.2564097e-05  -3.1326916e-06  -1.0873507e-04  -9.8557305e-05  -1.0376438e-04  -1.6481889e-04  -1.8085613e-04  -8.5535203e-05  -9.7820551e-05  -1.0256497e-04  -7.4012456e-05  -8.0221541e-05   8.6807923e-06  -4.2764401e-05  -6.6143150e-05   4.4132037e-06   7.1099659e-06  -9.9081384e-05  -8.5558441e-05  -6.8675268e-05  -1.0863378e-04  -2.4956760e-05  -1.0611185e-04  -8.5258397e-05   1.0309979e-04   1.3262179e-04   2.6548574e-05   1.3515077e-06   2.9937170e-05   8.3169479e-05   3.1753324e-06   2.4436516e-05  -5.6535904e-05   5.8065321e-05   1.4262323e-04   1.3018894e-04  -1.6803402e-06   3.0572346e-06  -1.9093240e-05  -9.1050958e-05   9.1647106e-05   1.2828229e-04   1.0920427e-04   1.8473326e-04   1.9237622e-04   7.1028143e-05   1.2428317e-04   4.4771184e-05   4.3649797e-05   1.5237178e-04   1.0483988e-04   8.8991599e-05   1.0440674e-04   6.3923260e-06   3.3095125e-06   1.6118343e-04   1.3194265e-04   1.3530027e-04   2.2053852e-04   9.7371373e-05   4.6591770e-05  -4.7392184e-05   8.5464902e-05   3.1095299e-05  -1.9707120e-04   2.7314199e-04   1.6268411e-06  -3.2776394e-04  -6.1141346e-05  -4.6904599e-04  -2.2009062e-04  -3.4144582e-04  -2.5349350e-04  -2.7914403e-04   2.3623063e-04  -3.2986388e-04  -3.6037013e-04  -3.1858931e-04  -3.2709749e-04  -7.9219055e-05  -1.7557754e-04  -1.0387150e-04   1.1744639e-04  -1.9773782e-04  -9.9484743e-05  -3.6484913e-04  -2.1904709e-04  -1.5474122e-04   1.5961797e-04  -1.0215958e-04  -2.8995892e-04  -3.1844290e-04  -4.4915546e-04   4.4223605e-05  -2.4058236e-04  -1.2424383e-04  -2.3025781e-04  -3.3994908e-04  -3.5536804e-04  -2.1044253e-05   9.4130063e-05   5.1427419e-05   5.9494413e-05   1.8082514e-04   1.3166161e-04   3.8940341e-05  -1.1613678e-05  -1.2706312e-04   4.9610520e-06   9.6831662e-05   7.0642920e-05   7.4230536e-05   1.0400759e-04  -2.7589685e-05  -4.3741103e-05  -2.1998463e-05   5.8294370e-05   6.7973240e-05   5.7332374e-05   7.8623618e-05   9.2448990e-05   4.9614534e-05   7.2427020e-05   3.4276705e-05  -9.4071215e-06  -5.4080543e-06   9.8877658e-05   3.1987560e-05  -2.2102562e-05  -2.7925313e-05   1.8585571e-05   9.9642803e-05   1.2042690e-04   6.7290831e-05   8.5254018e-05   4.3841907e-05   1.0737227e-05   1.3741925e-05   1.3787330e-04   1.8212420e-04   1.1511101e-04   2.5691685e-04   2.2137389e-04   1.4391723e-04   1.7991161e-04   1.2948258e-04   5.7109441e-05   1.2158039e-04   2.0812343e-04   2.1680595e-04   1.8917073e-04   1.6207159e-04   1.3020067e-04   1.5681572e-04   1.7809268e-04   2.3111008e-04   2.7281699e-04   2.2153875e-04   2.6909559e-04   1.8779093e-04   1.8244042e-04   1.7580593e-04   1.4672101e-04   2.1721233e-04   1.7173695e-04   1.6401031e-04   1.1381229e-04   1.8675359e-04   2.3966604e-04   2.7945509e-04   2.6290245e-04   1.1424274e-04   1.6446714e-04   1.4349136e-04   1.7400943e-04   1.2422041e-04   1.8046115e-05  -6.3853328e-05  -4.0937916e-05   3.2928712e-05   4.7235658e-05  -1.6290625e-05  -9.3317466e-05  -2.0941438e-04  -5.9581495e-05  -3.5620646e-05  -4.3984589e-05   1.9501042e-06   7.4945191e-05  -4.4388798e-05  -6.6057377e-05  -5.0695650e-05  -1.9450248e-05   1.4508434e-05   2.7353483e-05   5.4196238e-05   7.9175822e-05  -1.6384518e-05   4.1808181e-05  -4.1385818e-05  -6.6961742e-05   5.1872192e-05   1.3014280e-04   6.9725724e-06  -4.7984405e-05  -7.4327625e-05  -1.0120107e-04   1.0868344e-04   8.4226723e-05   2.5755388e-05  -1.1233338e-05  -3.8823503e-05  -1.0711927e-04  -5.0882157e-05   1.9795046e-05  -4.0938923e-06   1.2207597e-04  -1.4623659e-06  -4.2618957e-05  -2.2108545e-05   3.2433640e-04   1.2214248e-04   2.2549730e-05   1.3817941e-04   9.5499512e-05   1.8320698e-05   1.3393919e-04   4.5656300e-05  -2.4981979e-05  -1.0450867e-04   7.9020169e-05  -5.9869192e-05  -1.1642678e-04  -1.5332144e-04  -1.5378801e-04  -8.6617220e-06  -5.1668968e-05  -1.5260386e-05   8.2109738e-05  -1.6623847e-04  -3.0260528e-05  -4.7867133e-06  -4.0667017e-05  -7.4763247e-05   1.3926878e-04  -1.6484534e-04  -1.0530950e-04  -1.2173418e-05  -3.3911919e-05  -1.2207033e-05   1.1879048e-04   1.0033063e-04   8.6954452e-05   1.2575699e-04  -3.4825603e-05   1.6348960e-04   4.6678919e-05   3.9347282e-05   4.2795153e-05   4.8960720e-05  -8.2251131e-06  -3.0777120e-05   9.9135003e-05   9.4941574e-05   6.7475542e-05  -1.9569810e-05   5.3492728e-05  -1.2599922e-04   1.9672188e-04   2.0743519e-04   2.1562024e-04   2.4061641e-04   2.2820182e-04   8.3771061e-05   1.0306535e-04   2.7353589e-05  -7.7405983e-05   4.4846050e-05   4.8948845e-06   4.2049330e-06  -6.8045538e-05  -1.4745156e-05  -6.6957519e-05   1.4433899e-04   6.7751055e-05   9.2121720e-05   5.0996036e-05  -4.6871830e-05   1.0091085e-04   4.4865321e-05   2.6250271e-04   1.2704437e-04  -1.5363114e-04   1.6423059e-04   2.0739322e-04   5.1031951e-05  -1.4990125e-05  -3.1229848e-04  -1.1552147e-04  -3.5676416e-05   1.0739914e-04   9.8404102e-05   1.7936543e-04  -2.5495555e-04  -4.9688246e-05  -1.5824094e-04   6.6566045e-06   1.1971919e-04   1.2718264e-04   2.5622742e-04   3.1085313e-04   4.3948043e-05   1.0723314e-04  -1.8886359e-05  -4.5060019e-05   1.1162167e-04   2.2615722e-04   8.3473278e-06  -1.2164516e-04  -2.1338633e-04  -9.4912461e-05   3.6126659e-04   2.2491878e-04   2.7381680e-05  -4.9456867e-05  -2.0940293e-04  -4.8668620e-04  -1.4398062e-04  -1.6299498e-05  -2.7630043e-05  -5.1811864e-05   8.7147598e-06   1.0694561e-04  -3.3312003e-05  -1.8556563e-04  -1.9374331e-04  -7.2106788e-05  -1.3779121e-04  -1.3344687e-04  -3.9469392e-05   5.7215018e-05   5.7054162e-05   6.8493708e-05   3.0196214e-05  -9.7608376e-05   3.9566081e-05   3.8353411e-05   1.1117691e-04   1.2027389e-04   7.2150228e-05   1.2057855e-04   1.3107981e-04   6.5279874e-05   1.5462580e-05   7.2073601e-05   6.7489538e-05   1.8477669e-04   2.7064281e-04   1.4747125e-04   1.1306460e-04   1.4149737e-04   1.2108506e-04   1.7216743e-04   1.6516073e-04   2.9055126e-04   8.3781618e-05  -1.7126404e-04  -1.5712123e-04  -4.6479350e-05  -3.6151188e-04  -2.0315682e-04  -2.0326374e-04  -1.3925186e-04  -1.7482343e-04  -1.4582996e-04  -7.0101684e-05  -2.6069836e-04  -2.2069647e-04  -3.1611956e-05  -1.1251969e-04  -9.1520155e-05  -1.4532099e-04  -3.0306046e-04  -3.3724485e-04  -4.3128708e-04  -3.5588680e-04  -3.1556290e-04  -1.4052904e-04  -1.8178465e-04  -1.4676411e-04  -7.7905168e-05  -3.2516459e-04  -2.3547011e-04  -1.4234138e-04  -2.0056253e-05  -9.5450923e-05  -2.9332930e-07  -3.7461925e-04  -3.6325494e-04  -1.5947152e-04  -8.0016021e-05  -6.3687965e-05  -7.9856913e-05  -4.2515340e-05   2.7304798e-04   2.6558793e-04   8.6013980e-05   1.2143452e-04   2.4587988e-05   2.9942388e-04   1.9682220e-04   2.6339206e-04   2.9493720e-05   3.0374335e-04   6.1695765e-04   5.2514689e-04   2.5938095e-04   1.6945859e-05  -5.8486475e-05   8.9221404e-06   6.1028337e-04   5.2906199e-04   6.2826523e-04   1.5891742e-04   1.9272914e-04   1.3229562e-04   6.0605790e-05   2.1883105e-04  -3.6863020e-05   8.7567387e-05  -1.7329079e-04   1.3738796e-04   2.2901472e-04   1.6215339e-04  -4.5986250e-05   8.5640630e-05   7.7048790e-05   3.2010531e-04   5.1125850e-04   3.6973631e-04   3.5301445e-04   4.3705758e-04
  -7.2487462e-05  -1.2490823e-04  -1.5266459e-04  -1.2352926e-04  -7.8132313e-05  -7.9411834e-05   2.3172154e-05   4.9227560e-05  -4.3865614e-05  -5.0741889e-05  -1.0894965e-04  -7.7043468e-05   1.5711177e-05   1.0205793e-05   7.5004813e-05   5.4665321e-06  -1.0509019e-04  -9.5236799e-05  -1.0013047e-04  -1.7037451e-04  -1.8525522e-04  -8.8370413e-05  -9.8848550e-05  -1.1303167e-04  -7.7027634e-05  -7.9121033e-05   1.5585774e-05  -3.7349959e-05  -6.5737732e-05   1.7479491e-05   1.7503464e-05  -9.8870163e-05  -8.6760495e-05  -6.6815642e-05  -1.0384248e-04  -1.5508805e-05  -1.0679998e-04  -8.6871041e-05   1.0893059e-04   1.4152733e-04   4.3480953e-05   1.3437207e-05   3.8207731e-05   8.9787027e-05  -4.4604986e-06   2.2634503e-05  -6.1102301e-05   6.4980025e-05   1.4648645e-04   1.3463549e-04  -1.0401165e-05  -4.0639975e-06  -2.8058371e-05  -8.4068208e-05   1.0329186e-04   1.3430317e-04   1.1886437e-04   1.9881937e-04   2.0526957e-04   7.7410064e-05   1.3103902e-04   5.0863436e-05   4.7172160e-05   1.7170853e-04   1.1771823e-04   9.2902599e-05   1.0667754e-04  -6.9197539e-06  -9.8113846e-06   1.7545853e-04   1.4828582e-04   1.4332553e-04   2.3327103e-04   1.0395450e-04   4.2703163e-05  -6.0494340e-05   1.0528285e-04   4.0130758e-05  -2.2906850e-04   2.8442211e-04   4.2000999e-06  -3.6123511e-04  -9.7249596e-05  -5.6217597e-04  -2.6199190e-04  -3.9624365e-04  -2.7204995e-04  -3.0872764e-04   2.5956490e-04  -3.6547417e-04  -3.9522819e-04  -3.7318076e-04  -3.5258281e-04  -6.0780527e-05  -1.7751531e-04  -9.7702742e-05   1.5258269e-04  -2.0759714e-04  -8.4838372e-05  -3.9348010e-04  -2.3656848e-04  -1.4220146e-04   1.7751897e-04  -1.0240417e-04  -3.1695392e-04  -3.4669992e-04  -4.9671324e-04   8.1273305e-05  -2.6096142e-04  -1.4286211e-04  -2.8713781e-04  -4.0711909e-04  -4.1059768e-04  -3.4074693e-05   1.0037519e-04   5.4714339e-05   7.1478522e-05   2.0471196e-04   1.4527469e-04   4.4485045e-05  -3.7542518e-06  -1.2213742e-04   1.5837900e-05   1.0885866e-04   7.9939732e-05   7.9757518e-05   1.1530805e-04  -2.0486486e-05  -4.9752664e-05  -1.0027882e-05   7.7709610e-05   7.4032996e-05   6.2371346e-05   7.9219335e-05   9.5103037e-05   5.1444027e-05   7.7196367e-05   3.7159884e-05  -1.0066858e-05  -6.6184349e-06   1.0189003e-04   3.8221760e-05  -2.3936445e-05  -3.7079591e-05   2.3214388e-05   1.0319313e-04   1.2628039e-04   6.9348637e-05   9.1753919e-05   4.5820950e-05   8.9850379e-06   1.7334159e-05   1.6819863e-04   2.1591936e-04   1.5102985e-04   3.1290197e-04   2.6364028e-04   1.7924779e-04   1.9810288e-04   1.4468867e-04   7.8982402e-05   1.4900289e-04   2.5070933e-04   2.6001224e-04   2.0487736e-04   1.8693166e-04   1.4135730e-04   1.7804743e-04   2.1678194e-04   2.7522723e-04   3.2551691e-04   2.7734219e-04   3.2914706e-04   2.1803704e-04   2.1952083e-04   2.0927058e-04   1.6950138e-04   2.5253528e-04   1.9281972e-04   1.8963087e-04   1.3520404e-04   1.9933696e-04   2.6111031e-04   3.2296985e-04   3.0638171e-04   1.3774421e-04   1.9987877e-04   1.6774181e-04   1.9719714e-04   1.3707269e-04   2.4790265e-05  -6.4952207e-05  -3.2764506e-05   5.6288364e-05   6.1299969e-05  -1.2500158e-05  -8.8699239e-05  -2.1344425e-04  -5.2606845e-05  -2.5700096e-05  -3.3416395e-05   8.5479316e-06   8.4756151e-05  -4.5051954e-05  -6.7413983e-05  -3.6732395e-05  -5.2954041e-07   2.2428891e-05   3.7256374e-05   6.7263617e-05   9.6555685e-05  -1.2149847e-05   5.0233733e-05  -4.1703310e-05  -6.8160177e-05   6.2857594e-05   1.4465802e-04   1.3477360e-05  -4.8004075e-05  -7.7649099e-05  -1.0712991e-04   1.2620692e-04   9.7173855e-05   3.1733763e-05  -8.0383526e-06  -3.7087261e-05  -1.1439219e-04  -5.3580196e-05   1.7863024e-05  -1.5945248e-05   1.4746501e-04   1.2653192e-05  -3.0345798e-05  -2.2732002e-05   3.6569021e-04   1.2782774e-04   3.3884143e-05   1.6382173e-04   1.0581120e-04   2.0622065e-05   1.6483873e-04   6.8664864e-05  -2.5484349e-05  -1.0613650e-04   9.3531475e-05  -6.5241635e-05  -1.2820635e-04  -1.7633291e-04  -1.7638177e-04  -2.9468717e-06  -5.4030756e-05  -9.9698820e-06   9.4866715e-05  -1.9896283e-04  -3.3332498e-05  -5.4277720e-06  -4.1625191e-05  -8.5688665e-05   1.6099571e-04  -1.8533148e-04  -1.1100055e-04  -1.7401308e-05  -3.0871086e-05  -1.1446172e-05   1.2438335e-04   1.0580872e-04   9.9752083e-05   1.4816694e-04  -2.3496777e-05   2.0326097e-04   6.0142395e-05   4.4529854e-05   4.4640144e-05   5.1031526e-05   6.3211091e-07  -2.3908497e-05   1.2132681e-04   1.0877436e-04   6.6013607e-05  -1.5924694e-05   5.0599756e-05  -1.1193374e-04   2.3943830e-04   2.4241715e-04   2.4371253e-04   2.9953310e-04   2.8142807e-04   1.0086019e-04   1.2761249e-04   4.1558508e-05  -7.2153239e-05   6.8754839e-05   1.8858857e-05   1.4217769e-05  -6.8736082e-05  -1.5002378e-05  -7.1872967e-05   1.8261977e-04   9.6962761e-05   1.1770174e-04   7.1749386e-05  -3.7336347e-05   1.3992629e-04   5.6839491e-05   2.7774391e-04   1.3694075e-04  -1.6974607e-04   1.5755937e-04   2.0788303e-04   3.2554176e-05  -3.3363897e-05  -3.5536156e-04  -1.3078850e-04  -4.4449602e-05   1.0157349e-04   7.7306357e-05   1.5886992e-04  -2.7348874e-04  -6.1264170e-05  -1.6082624e-04   7.5800199e-07   1.0437059e-04   1.0249938e-04   2.6309936e-04   3.2900801e-04   4.3007494e-05   1.0822402e-04  -3.4108230e-05  -5.4927244e-05   1.2475149e-04   2.3211616e-04   5.3823496e-06  -1.3620673e-04  -2.3639825e-04  -1.2444952e-04   3.8151752e-04   2.2697809e-04   2.2827579e-05  -7.5535299e-05  -2.4365242e-04  -5.4687116e-04  -1.7511922e-04  -8.5268983e-06  -2.7753781e-05  -5.0131513e-05   3.7853583e-05   1.2428974e-04  -2.7139611e-05  -1.6078339e-04  -1.6333311e-04  -5.7216623e-05  -1.2994168e-04  -1.1935546e-04  -3.6342534e-05   6.4038207e-05   7.3208108e-05   9.0814612e-05   9.1287443e-05  -4.9046127e-05   4.5346411e-05   5.0633382e-05   1.2136002e-04   1.3539027e-04   7.9795550e-05   1.3436049e-04   1.3752795e-04   8.2872748e-05   3.0149237e-05   8.4197668e-05   8.8345327e-05   2.2870108e-04   2.9402202e-04   1.7836081e-04   1.2667069e-04   1.4780825e-04   1.4084968e-04   2.2725879e-04   1.8351433e-04   3.4087850e-04   1.0754261e-04  -1.7069699e-04  -1.6412334e-04   3.7559374e-06  -3.1686220e-04  -1.7443174e-04  -1.8691807e-04  -1.1911242e-04  -1.6258325e-04  -1.1254120e-04  -3.8297176e-05  -2.4278177e-04  -1.8973914e-04   5.2487677e-06  -9.5527276e-05  -6.9528418e-05  -1.1229502e-04  -2.8517698e-04  -3.2776308e-04  -4.2228774e-04  -3.5173517e-04  -3.1261983e-04  -1.2799544e-04  -1.6523076e-04  -1.3822273e-04  -6.4114257e-05  -3.4314588e-04  -2.4561657e-04  -1.2804184e-04   8.0260229e-07  -9.1379981e-05   3.0159308e-05  -3.8568987e-04  -3.6884308e-04  -1.5372048e-04  -4.6261500e-05  -3.8226968e-05  -5.6661849e-05  -2.1524818e-05   3.4460871e-04   3.4810753e-04   1.5558356e-04   1.7010671e-04   4.6012284e-05   3.7480569e-04   1.7191115e-04   2.5510783e-04   5.5147670e-05   3.5800525e-04   7.1291691e-04   6.3980101e-04   2.7231905e-04  -1.1873249e-05  -6.9776971e-05  -1.7233009e-05   6.8169267e-04   6.1410733e-04   7.2646931e-04   2.4104476e-04   2.9550377e-04   1.6506684e-04   1.0533601e-04   2.9675650e-04  -3.9313136e-07   1.1209070e-04  -2.0830705e-04   1.8512255e-04   3.0642626e-04   1.9766977e-04  -4.1924558e-05   1.3047894e-04   1.1413458e-04   3.9682292e-04   6.3026239e-04   3.7660643e-04   4.3648260e-04   5.5388390e-04
  -6.7452723e-05  -1.2873522e-04  -1.5728928e-04  -1.3011250e-04  -7.9725231e-05  -7.5973184e-05   3.1127792e-05   5.8688769e-05  -4.2445701e-05  -4.4744584e-05  -1.0217704e-04  -6.7724239e-05   3.0470324e-05   2.0786477e-05   8.7359798e-05   1.4750777e-05  -9.8246700e-05  -8.8595013e-05  -9.2468645e-05  -1.7180398e-04  -1.8443813e-04  -8.8355850e-05  -9.6874195e-05  -1.2132415e-04  -7.8166635e-05  -7.6106646e-05   2.1927824e-05  -3.0290981e-05  -6.2813687e-05   3.2102559e-05   2.8719132e-05  -9.6065463e-05  -8.5648569e-05  -6.2738316e-05  -9.4600500e-05  -3.7800650e-06  -1.0560245e-04  -8.6670235e-05   1.1206618e-04   1.4813109e-04   5.8703451e-05   2.5227797e-05   4.6303794e-05   9.5164443e-05  -1.0979306e-05   2.2345372e-05  -6.3962367e-05   7.0854076e-05   1.4671287e-04   1.3644402e-04  -2.0119069e-05  -1.0182030e-05  -3.4596819e-05  -7.1446965e-05   1.1427052e-04   1.3645334e-04   1.2618186e-04   2.0946496e-04   2.1352440e-04   8.2422214e-05   1.3473729e-04   5.5412359e-05   4.9900848e-05   1.8829384e-04   1.2850479e-04   9.4387977e-05   1.0687334e-04  -2.0776928e-05  -2.2776739e-05   1.8544123e-04   1.6200294e-04   1.4860797e-04   2.4315175e-04   1.1129550e-04   3.6301306e-05  -7.4992538e-05   1.2646063e-04   5.2843136e-05  -2.6383472e-04   2.8382070e-04   3.8824316e-06  -3.9219495e-04  -1.4008240e-04  -6.5709870e-04  -3.0424196e-04  -4.5190188e-04  -2.8503698e-04  -3.3517103e-04   2.8106949e-04  -3.9072063e-04  -4.2754707e-04  -4.2959341e-04  -3.7045112e-04  -3.4227152e-05  -1.7169888e-04  -8.6636913e-05   1.9029508e-04  -2.1214957e-04  -6.5958237e-05  -4.1486492e-04  -2.5004145e-04  -1.2148183e-04   1.9576662e-04  -9.9250964e-05  -3.4138417e-04  -3.7130582e-04  -5.3806577e-04   1.2404333e-04  -2.7582499e-04  -1.6042753e-04  -3.5162439e-04  -4.7917028e-04  -4.6284482e-04  -4.8353887e-05   1.0499793e-04   5.7555881e-05   8.4697819e-05   2.2744684e-04   1.5722567e-04   5.0216390e-05   7.4193925e-06  -1.1040670e-04   2.8516293e-05   1.2065719e-04   8.8992903e-05   8.4407170e-05   1.2535880e-04  -1.1283268e-05  -5.3517117e-05   5.5698377e-06   9.8232528e-05   7.9030234e-05   6.6772418e-05   7.8164903e-05   9.5615799e-05   5.2577963e-05   8.0605983e-05   4.0080022e-05  -9.6080279e-06  -7.3938841e-06   1.0288902e-04   4.4887904e-05  -2.5037937e-05  -4.4919398e-05   2.8807463e-05   1.0466380e-04   1.2981849e-04   6.9904642e-05   9.7104962e-05   4.7334532e-05   6.8520742e-06   2.1129997e-05   1.9806739e-04   2.4790322e-04   1.8812289e-04   3.6758867e-04   3.0359277e-04   2.1415621e-04   2.1015270e-04   1.5433740e-04   1.0156061e-04   1.7495513e-04   2.9170632e-04   3.0127078e-04   2.1642880e-04   2.0718417e-04   1.4806396e-04   1.9537073e-04   2.5414154e-04   3.1746825e-04   3.7596227e-04   3.3369592e-04   3.8921557e-04   2.4499990e-04   2.5513215e-04   2.4078319e-04   1.8989494e-04   2.8597023e-04   2.1130620e-04   2.1297952e-04   1.5514064e-04   2.0746374e-04   2.7561245e-04   3.6388560e-04   3.4701428e-04   1.6022865e-04   2.3288516e-04   1.8885322e-04   2.1741972e-04   1.4776986e-04   3.2019044e-05  -6.4426049e-05  -2.2167414e-05   8.1694854e-05   7.5838058e-05  -7.3270903e-06  -8.0984248e-05  -2.1210605e-04  -4.3542676e-05  -1.3377305e-05  -2.0079216e-05   1.6464583e-05   9.3787609e-05  -4.4850167e-05  -6.7157016e-05  -2.1686250e-05   2.0855917e-05   3.1003044e-05   4.7847443e-05   8.1042048e-05   1.1457672e-04  -6.5711846e-06   5.8881104e-05  -4.0555047e-05  -6.7438369e-05   7.3481454e-05   1.5620658e-04   2.0374780e-05  -4.6497221e-05  -7.9193882e-05  -1.1112728e-04   1.4269960e-04   1.0915015e-04   3.7478462e-05  -4.1868852e-06  -3.3523856e-05  -1.1961848e-04  -5.4793608e-05   1.5658738e-05  -2.9480468e-05   1.7435575e-04   2.8919313e-05  -1.5458428e-05  -2.2200925e-05   4.0202218e-04   1.2953315e-04   4.6933399e-05   1.8884306e-04   1.1435401e-04   2.2467698e-05   1.9491725e-04   9.1574011e-05  -2.7139836e-05  -1.0501905e-04   1.0789490e-04  -7.0186550e-05  -1.3849188e-04  -1.9787135e-04  -1.9764982e-04   3.5220540e-06  -5.5181700e-05  -2.3723188e-06   1.0670646e-04  -2.3101817e-04  -3.7239588e-05  -6.1129259e-06  -4.0996913e-05  -9.7810810e-05   1.7950651e-04  -2.0456485e-04  -1.1556236e-04  -2.3750138e-05  -2.6987698e-05  -1.1030216e-05   1.2764329e-04   1.0976703e-04   1.1273807e-04   1.7173205e-04  -1.1618781e-05   2.4324105e-04   7.4040247e-05   5.0712139e-05   4.9585761e-05   5.9699283e-05   1.1235766e-05  -1.4371695e-05   1.4488417e-04   1.2274558e-04   6.0625243e-05  -9.2482417e-06   5.0291993e-05  -8.8327664e-05   2.8322556e-04   2.7552613e-04   2.6996887e-04   3.5927477e-04   3.3567824e-04   1.1826084e-04   1.5318949e-04   5.7096103e-05  -6.3027285e-05   9.5818012e-05   3.4341555e-05   2.6294826e-05  -6.6918399e-05  -1.4008887e-05  -7.0191432e-05   2.2283055e-04   1.2925495e-04   1.4432734e-04   9.4885946e-05  -2.4198863e-05   1.7606468e-04   6.6816900e-05   2.8756734e-04   1.4639827e-04  -1.7548171e-04   1.5129498e-04   2.0511166e-04   1.3087171e-05  -5.1368127e-05  -3.9138406e-04  -1.4175155e-04  -4.9077795e-05   9.5616700e-05   5.3589406e-05   1.3470079e-04  -2.8268029e-04  -7.4021863e-05  -1.5940423e-04  -3.6511992e-06   8.4501222e-05   7.1859416e-05   2.6306388e-04   3.4093983e-04   4.3934284e-05   1.0737386e-04  -4.6232442e-05  -6.2172748e-05   1.3485532e-04   2.2773454e-04   2.0629222e-06  -1.4671623e-04  -2.5499850e-04  -1.5256885e-04   3.9153022e-04   2.2060648e-04   1.6317827e-05  -1.0072403e-04  -2.7392157e-04  -5.9734800e-04  -2.0411419e-04  -3.7809687e-06  -2.9841127e-05  -4.7754653e-05   6.4366364e-05   1.3699486e-04  -2.1508975e-05  -1.3309715e-04  -1.2621187e-04  -4.0252719e-05  -1.2113478e-04  -1.0389092e-04  -3.5685600e-05   6.5264212e-05   8.5647032e-05   1.1200903e-04   1.5675632e-04   3.3897849e-06   4.9152070e-05   6.1464901e-05   1.2840679e-04   1.4613594e-04   8.4071618e-05   1.4338140e-04   1.3975988e-04   9.8090949e-05   4.6224209e-05   9.4755939e-05   1.0649268e-04   2.6858282e-04   3.1005214e-04   2.0687024e-04   1.3835025e-04   1.5082256e-04   1.5756647e-04   2.7973854e-04   1.9609302e-04   3.8653739e-04   1.3035998e-04  -1.6418109e-04  -1.6658026e-04   5.7619728e-05  -2.5486506e-04  -1.3528117e-04  -1.6236315e-04  -9.4983570e-05  -1.4712419e-04  -7.2626465e-05  -1.9043366e-06  -2.1675335e-04  -1.4884083e-04   4.4016401e-05  -7.5022235e-05  -4.2862761e-05  -7.0571415e-05  -2.5799068e-04  -3.0727752e-04  -3.9806737e-04  -3.3412783e-04  -2.9758302e-04  -1.0988066e-04  -1.4089143e-04  -1.2463890e-04  -4.6604770e-05  -3.4967008e-04  -2.4527894e-04  -1.0689154e-04   2.3308127e-05  -8.4681722e-05   6.4816945e-05  -3.8269259e-04  -3.6073891e-04  -1.4280573e-04  -8.5184560e-06  -9.5782136e-06  -2.8984445e-05   4.7914236e-07   4.1813815e-04   4.3347899e-04   2.3439064e-04   2.2124176e-04   6.8378713e-05   4.4926051e-04   1.3397287e-04   2.3254187e-04   8.2629966e-05   4.0888652e-04   8.0017120e-04   7.5203778e-04   2.7839423e-04  -4.5242362e-05  -8.2188867e-05  -5.2703597e-05   7.3770529e-04   6.9351360e-04   8.1680663e-04   3.2703833e-04   4.0464364e-04   1.9670909e-04   1.5246162e-04   3.7814154e-04   4.3549622e-05   1.3615103e-04  -2.4284108e-04   2.3597093e-04   3.8716186e-04   2.3249212e-04  -3.2485851e-05   1.7863531e-04   1.5290114e-04   4.7190444e-04   7.4361042e-04   3.6185198e-04   5.2655399e-04   6.7872975e-04
  -6.0241764e-05  -1.2973680e-04  -1.5882932e-04  -1.3381132e-04  -7.8506096e-05  -6.9313320e-05   4.0201856e-05   6.8796741e-05  -3.9961084e-05  -3.6717202e-05  -9.1882841e-05  -5.4842935e-05   4.6778168e-05   3.2427470e-05   9.9322753e-05   2.4268575e-05  -8.8500137e-05  -7.8941659e-05  -8.1043741e-05  -1.6907672e-04  -1.7843230e-04  -8.5517152e-05  -9.2029297e-05  -1.2728729e-04  -7.7521982e-05  -7.1355374e-05   2.7423688e-05  -2.1958335e-05  -5.7588723e-05   4.7618205e-05   4.0310238e-05  -9.0785772e-05  -8.2289917e-05  -5.6673684e-05  -8.1385106e-05   9.7869359e-06  -1.0300189e-04  -8.4905053e-05   1.1257950e-04   1.5250809e-04   7.0882908e-05   3.6371989e-05   5.4159105e-05   9.9394711e-05  -1.5412495e-05   2.4119599e-05  -6.4827007e-05   7.5687258e-05   1.4362953e-04   1.3605210e-04  -3.0305136e-05  -1.4557047e-05  -3.7756775e-05  -5.3204564e-05   1.2454647e-04   1.3463909e-04   1.3103213e-04   2.1664330e-04   2.1702614e-04   8.6058722e-05   1.3545775e-04   5.8146923e-05   5.1813307e-05   2.0143788e-04   1.3709579e-04   9.3478736e-05   1.0546406e-04  -3.4208546e-05  -3.4584517e-05   1.9085719e-04   1.7256710e-04   1.5141231e-04   2.5086759e-04   1.2014749e-04   2.7465991e-05  -9.0712295e-05   1.4959457e-04   7.0933204e-05  -3.0162750e-04   2.7071467e-04   7.3598737e-08  -4.1961596e-04  -1.8740776e-04  -7.5010089e-04  -3.4515204e-04  -5.0693153e-04  -2.9083257e-04  -3.5684567e-04   3.0087168e-04  -4.0355528e-04  -4.5693018e-04  -4.8612534e-04  -3.7887743e-04   1.0195072e-06  -1.5678465e-04  -6.9898369e-05   2.3056657e-04  -2.1106909e-04  -4.3619693e-05  -4.2836206e-04  -2.5927805e-04  -9.2656637e-05   2.1452733e-04  -9.2609070e-05  -3.6238852e-04  -3.9193100e-04  -5.7194461e-04   1.7186509e-04  -2.8442012e-04  -1.7580148e-04  -4.2116712e-04  -5.5359413e-04  -5.1009978e-04  -6.3063374e-05   1.0800066e-04   6.0072388e-05   9.8890230e-05   2.4847035e-04   1.6723540e-04   5.5985671e-05   2.1502766e-05  -9.2485885e-05   4.2394850e-05   1.3198365e-04   9.7535420e-05   8.8119796e-05   1.3390635e-04  -4.5023645e-07  -5.4733262e-05   2.4080813e-05   1.1884429e-04   8.2859234e-05   7.0455756e-05   7.5661143e-05   9.3998104e-05   5.3118922e-05   8.2543409e-05   4.3099775e-05  -7.9140496e-06  -7.7766527e-06   1.0202815e-04   5.1788823e-05  -2.5353317e-05  -5.0863174e-05   3.5210222e-05   1.0411448e-04   1.3110590e-04   6.9061011e-05   1.0125762e-04   4.8391075e-05   4.4691940e-06   2.5066145e-05   2.2640382e-04   2.7706838e-04   2.2482471e-04   4.1869886e-04   3.3964371e-04   2.4711505e-04   2.1526574e-04   1.5757765e-04   1.2370745e-04   1.9812256e-04   3.2937838e-04   3.3874111e-04   2.2331350e-04   2.2163091e-04   1.4997214e-04   2.0810276e-04   2.8847176e-04   3.5608548e-04   4.2195506e-04   3.8870227e-04   4.4734016e-04   2.6758307e-04   2.8795322e-04   2.6919433e-04   2.0715979e-04   3.1667050e-04   2.2683264e-04   2.3313022e-04   1.7270126e-04   2.1102874e-04   2.8259213e-04   4.0122629e-04   3.8360681e-04   1.8078916e-04   2.6174268e-04   2.0575205e-04   2.3401124e-04   1.5591239e-04   3.9571124e-05  -6.2399917e-05  -9.5551724e-06   1.0816160e-04   9.0376499e-05  -8.9708963e-07  -7.1002368e-05  -2.0627862e-04  -3.2952645e-05   7.9134872e-07  -4.5645742e-06   2.5549815e-05   1.0183746e-04  -4.4000587e-05  -6.5529433e-05  -6.7370650e-06   4.3652960e-05   3.9994639e-05   5.8837174e-05   9.5409507e-05   1.3300160e-04   2.1260405e-07   6.7682679e-05  -3.7922539e-05  -6.4879761e-05   8.3546769e-05   1.6452623e-04   2.7425993e-05  -4.3550106e-05  -7.8982064e-05  -1.1329925e-04   1.5786244e-04   1.2000117e-04   4.2865374e-05   1.8620051e-07  -2.8333915e-05  -1.2255884e-04  -5.4367282e-05   1.3184159e-05  -4.4274403e-05   2.0227380e-04   4.6658968e-05   1.2324362e-06  -2.0718362e-05   4.3172962e-04   1.2685636e-04   6.1355854e-05   2.1223553e-04   1.2062282e-04   2.3463180e-05   2.2274979e-04   1.1282128e-04  -3.0404671e-05  -1.0142698e-04   1.2149708e-04  -7.4849415e-05  -1.4734074e-04  -2.1753704e-04  -2.1734917e-04   1.0231302e-05  -5.5398660e-05   7.1306011e-06   1.1728300e-04  -2.6138730e-04  -4.2006230e-05  -6.9401214e-06  -3.9025865e-05  -1.1132222e-04   1.9371732e-04  -2.2234743e-04  -1.1938057e-04  -3.1200745e-05  -2.2835635e-05  -1.1315237e-05   1.2856147e-04   1.1219077e-04   1.2575173e-04   1.9597223e-04  -6.4219825e-08   2.8195613e-04   8.7797437e-05   5.7939254e-05   5.8348890e-05   7.6061355e-05   2.3085342e-05  -2.5705640e-06   1.6906751e-04   1.3649000e-04   5.1221603e-05   2.5437718e-07   5.3296963e-05  -5.5814343e-05   3.2676970e-04   3.0534590e-04   2.9345201e-04   4.1742185e-04   3.8883892e-04   1.3534886e-04   1.7886563e-04   7.3413281e-05  -5.0398832e-05   1.2484570e-04   5.0488869e-05   4.0003259e-05  -6.2627129e-05  -1.2058982e-05  -6.1395584e-05   2.6336280e-04   1.6340115e-04   1.7100153e-04   1.1967796e-04  -8.2047229e-06   2.0716118e-04   7.4143075e-05   2.9225879e-04   1.5588518e-04  -1.6983169e-04   1.4714735e-04   2.0013382e-04  -5.8399415e-06  -6.7933194e-05  -4.1861776e-04  -1.4804385e-04  -4.8971315e-05   9.0533647e-05   2.9020542e-05   1.0883837e-04  -2.8261654e-04  -8.7794047e-05  -1.5470548e-04  -5.9150625e-06   6.1322851e-05   3.6969862e-05   2.5666719e-04   3.4675665e-04   4.7329282e-05   1.0515387e-04  -5.3845960e-05  -6.6340867e-05   1.4141197e-04   2.1263155e-04  -1.4339375e-06  -1.5259470e-04  -2.6918203e-04  -1.7797306e-04   3.9102256e-04   2.0604087e-04   8.1396192e-06  -1.2319102e-04  -2.9876907e-04  -6.3710352e-04  -2.2984016e-04  -3.1315502e-06  -3.4177093e-05  -4.5788959e-05   8.5690892e-05   1.4384808e-04  -1.7374214e-05  -1.0539554e-04  -8.5323692e-05  -2.2609064e-05  -1.1299291e-04  -8.8960747e-05  -3.8590358e-05   5.9834804e-05   9.3170201e-05   1.3070057e-04   2.2311830e-04   5.6143153e-05   5.0215967e-05   6.9610760e-05   1.3178406e-04   1.5152932e-04   8.4426750e-05   1.4676558e-04   1.3739719e-04   1.0974853e-04   6.2768488e-05   1.0301320e-04   1.2042538e-04   3.0206968e-04   3.1790371e-04   2.3189097e-04   1.4743853e-04   1.5033516e-04   1.7025189e-04   3.2652680e-04   2.0191304e-04   4.2508631e-04   1.5064507e-04  -1.5213178e-04  -1.6458355e-04   1.1163325e-04  -1.7889467e-04  -8.7981460e-05  -1.3107195e-04  -6.8562507e-05  -1.2996368e-04  -2.8608434e-05   3.7187320e-05  -1.8433302e-04  -1.0032209e-04   8.2226110e-05  -5.2395524e-05  -1.3078648e-05  -2.2584383e-05  -2.2323153e-04  -2.7744694e-04  -3.6034700e-04  -3.0423027e-04  -2.7134622e-04  -8.7523405e-05  -1.1025807e-04  -1.0726183e-04  -2.6533349e-05  -3.4462231e-04  -2.3432255e-04  -8.0012351e-05   4.6159683e-05  -7.5894973e-05   1.0226342e-04  -3.6594176e-04  -3.3967163e-04  -1.2757673e-04   3.0906975e-05   2.0517859e-05   1.7546710e-06   2.1948323e-05   4.9129136e-04   5.1857111e-04   3.2016180e-04   2.7287034e-04   9.0616639e-05   5.1973090e-04   8.4254227e-05   1.9657192e-04   1.1087614e-04   4.5442421e-04   8.7514703e-04   8.5762751e-04   2.7771370e-04  -8.0935096e-05  -9.5612339e-05  -9.7294980e-05   7.7506189e-04   7.6422056e-04   8.9560397e-04   4.1331724e-04   5.1588124e-04   2.2590535e-04   1.9986945e-04   4.6010713e-04   9.3606262e-05   1.5844459e-04  -2.7600511e-04   2.8801469e-04   4.6816146e-04   2.6554277e-04  -1.7133391e-05   2.2811580e-04   1.9174780e-04   5.4223917e-04   8.4569334e-04   3.2461653e-04   6.2247191e-04   8.0850357e-04
  -5.1202650e-05  -1.2799375e-04  -1.5752390e-04  -1.3449835e-04  -7.4447176e-05  -5.9648975e-05   5.0511969e-05   7.9533661e-05  -3.6601254e-05  -2.6973986e-05  -7.8497310e-05  -3.8859746e-05   6.4129601e-05   4.4689263e-05   1.1061432e-04   3.3568619e-05  -7.6191647e-05  -6.6686738e-05  -6.6273732e-05  -1.6229050e-04  -1.6745947e-04  -8.0035309e-05  -8.4565719e-05  -1.3091626e-04  -7.5267622e-05  -6.5059986e-05   3.1910897e-05  -1.2752235e-05  -5.0416720e-05   6.3319205e-05   5.1853212e-05  -8.3202946e-05  -7.6824520e-05  -4.8919057e-05  -6.4871902e-05   2.4660985e-05  -9.9481636e-05  -8.1864892e-05   1.1068972e-04   1.5482451e-04   7.8939240e-05   4.6743311e-05   6.1802199e-05   1.0264771e-04  -1.6884308e-05   2.8369060e-05  -6.3490187e-05   7.9603185e-05   1.3772825e-04   1.3402026e-04  -4.0377668e-05  -1.6567944e-05  -3.6816974e-05  -2.9616525e-05   1.3416414e-04   1.2895682e-04   1.3341949e-04   2.2050350e-04   2.1591717e-04   8.8417923e-05   1.3345596e-04   5.8947164e-05   5.2933936e-05   2.1062443e-04   1.4355544e-04   9.0340295e-05   1.0299906e-04  -4.6284507e-05  -4.4346678e-05   1.9172616e-04   1.7962603e-04   1.5215732e-04   2.5722638e-04   1.3120280e-04   1.6367795e-05  -1.0741413e-04   1.7545673e-04   9.6113649e-05  -3.4252273e-04   2.4522128e-04  -7.5296897e-06  -4.4231480e-04  -2.3653241e-04  -8.3743139e-04  -3.8294162e-04  -5.5965734e-04  -2.8782042e-04  -3.7192172e-04   3.1927720e-04  -4.0264516e-04  -4.8307572e-04  -5.4103280e-04  -3.7627348e-04   4.5320805e-05  -1.3161688e-04  -4.6706196e-05   2.7347383e-04  -2.0424812e-04  -1.8646890e-05  -4.3357317e-04  -2.6433681e-04  -5.6208338e-05   2.3379376e-04  -8.2517070e-05  -3.7905036e-04  -4.0839387e-04  -5.9752027e-04   2.2383948e-04  -2.8626615e-04  -1.8780675e-04  -4.9251143e-04  -6.2751751e-04  -5.5061863e-04  -7.7295839e-05   1.0944396e-04   6.2396804e-05   1.1367522e-04   2.6725668e-04   1.7508590e-04   6.1601666e-05   3.7845101e-05  -6.9405791e-05   5.6774487e-05   1.4255505e-04   1.0527071e-04   9.0836422e-05   1.4075680e-04   1.1452738e-05  -5.3301290e-05   4.4520383e-05   1.3843917e-04   8.5432795e-05   7.3326028e-05   7.1925735e-05   9.0310563e-05   5.3174931e-05   8.2932845e-05   4.6260126e-05  -4.9620417e-06  -7.8937324e-06   9.9486055e-05   5.8682965e-05  -2.4877441e-05  -5.4457328e-05   4.2193802e-05   1.0164131e-04   1.3026286e-04   6.6961387e-05   1.0417896e-04   4.8982683e-05   1.9837705e-06   2.9088862e-05   2.5216502e-04   3.0258065e-04   2.5950112e-04   4.6409118e-04   3.7040831e-04   2.7663465e-04   2.1307910e-04   1.5396550e-04   1.4425277e-04   2.1729534e-04   3.6205025e-04   3.7066316e-04   2.2518781e-04   2.2945910e-04   1.4704242e-04   2.1589737e-04   3.1814311e-04   3.8940299e-04   4.6138902e-04   4.4047611e-04   5.0158283e-04   2.8494524e-04   3.1679716e-04   2.9355591e-04   2.2071936e-04   3.4391985e-04   2.3918434e-04   2.4926879e-04   1.8706575e-04   2.1013950e-04   2.8189414e-04   4.3418797e-04   4.1517915e-04   1.9858413e-04   2.8489087e-04   2.1762565e-04   2.4642093e-04   1.6114696e-04   4.7275403e-05  -5.9061468e-05   4.5485942e-06   1.3463497e-04   1.0444862e-04   6.5997329e-06  -5.9801752e-05  -1.9718930e-04  -2.1473132e-05   1.6137943e-05   1.2413012e-05   3.5585777e-05   1.0872859e-04  -4.2768607e-05  -6.2884510e-05   6.9853124e-06   6.6716534e-05   4.9157860e-05   6.9924848e-05   1.1024482e-04   1.5160026e-04   8.0078516e-06   7.6582686e-05  -3.3849880e-05  -6.0656856e-05   9.2933852e-05   1.6957995e-04   3.4396646e-05  -3.9319768e-05  -7.7117923e-05  -1.1386087e-04   1.7151339e-04   1.2968829e-04   4.7819677e-05   4.9326146e-06  -2.1831375e-05  -1.2305107e-04  -5.2218263e-05   1.0387797e-05  -5.9852210e-05   2.3066091e-04   6.5123151e-05   1.8836504e-05  -1.8597219e-05   4.5360240e-04   1.1967315e-04   7.6718025e-05   2.3303456e-04   1.2419079e-04   2.3204003e-05   2.4703300e-04   1.3096003e-04  -3.5593865e-05  -9.5730409e-05   1.3372674e-04  -7.9379555e-05  -1.5486360e-04  -2.3505271e-04  -2.3536404e-04   1.6635428e-05  -5.5041112e-05   1.7960194e-05   1.2632853e-04  -2.8914786e-04  -4.7531594e-05  -8.0156342e-06  -3.6091589e-05  -1.2634064e-04   2.0281721e-04  -2.3853690e-04  -1.2284355e-04  -3.9657752e-05  -1.9003217e-05  -1.2597305e-05   1.2712582e-04   1.1304917e-04   1.3856614e-04   2.2026741e-04   1.0351253e-05   3.1798209e-04   1.0080871e-04   6.6111482e-05   7.1299644e-05   1.0049812e-04   3.5555459e-05   1.0914232e-05   1.9300301e-04   1.4954534e-04   3.7904412e-05   1.2103212e-05   5.9923262e-05  -1.5639165e-05   3.6868542e-04   3.3055502e-04   3.1321084e-04   4.7147704e-04   4.3865383e-04   1.5144157e-04   2.0358314e-04   8.9891692e-05  -3.4859111e-05   1.5437105e-04   6.6388919e-05   5.4766981e-05  -5.6060766e-05  -9.6483166e-06  -4.5577744e-05   3.0240734e-04   1.9796182e-04   1.9667817e-04   1.4521947e-04   9.6265586e-06   2.3155565e-04   7.8371788e-05   2.9234995e-04   1.6578756e-04  -1.5266651e-04   1.4649132e-04   1.9397067e-04  -2.2844461e-05  -8.2166535e-05  -4.3589559e-04  -1.4973184e-04  -4.3976121e-05   8.7079315e-05   5.2572821e-06   8.3141550e-05  -2.7410703e-04  -1.0238490e-04  -1.4774982e-04  -5.6304052e-06   3.6114304e-05  -3.4588250e-07   2.4476147e-04   3.4679822e-04   5.3505333e-05   1.0202972e-04  -5.5932774e-05  -6.7297874e-05   1.4408750e-04   1.8707012e-04  -4.9776263e-06  -1.5366134e-04  -2.7936706e-04  -1.9970518e-04   3.8026163e-04   1.8393567e-04  -1.3502504e-06  -1.4138350e-04  -3.1717987e-04  -6.6595636e-04  -2.5150549e-04  -7.3622645e-06  -4.0840735e-05  -4.5506613e-05   9.9567717e-05   1.4394274e-04  -1.5623260e-05  -8.0441770e-05  -4.3824019e-05  -5.6723950e-06  -1.0706107e-04  -7.6370557e-05  -4.5949619e-05   4.7099413e-05   9.5005951e-05   1.4564646e-04   2.8686993e-04   1.0576174e-04   4.7824124e-05   7.3891034e-05   1.3107854e-04   1.5083733e-04   8.0554368e-05   1.4395158e-04   1.3022731e-04   1.1687614e-04   7.8774872e-05   1.0829671e-04   1.2890544e-04   3.2722947e-04   3.1719920e-04   2.5261130e-04   1.5326629e-04   1.4614476e-04   1.7816069e-04   3.6493394e-04   2.0045868e-04   4.5430310e-04   1.6684502e-04  -1.3522809e-04  -1.5843172e-04   1.6244188e-04  -9.3130126e-05  -3.5330651e-05  -9.4835064e-05  -4.1522026e-05  -1.1251704e-04   1.6813632e-05   7.7058088e-05  -1.4742157e-04  -4.6867383e-05   1.1756565e-04  -2.9069335e-05   1.8111166e-05   2.8820705e-05  -1.8286246e-04  -2.4036395e-04  -3.1152284e-04  -2.6391108e-04  -2.3540994e-04  -6.2506750e-05  -7.5169879e-05  -8.7533404e-05  -5.1658328e-06  -3.2865444e-04  -2.1339064e-04  -4.8832761e-05   6.8131517e-05  -6.5600380e-05   1.4099205e-04  -3.3661163e-04  -3.0720536e-04  -1.0908088e-04   6.9754937e-05   5.0304080e-05   3.4082352e-05   4.1531475e-05   5.6168131e-04   6.0018401e-04   4.1013022e-04   3.2288047e-04   1.1163435e-04   5.8325851e-04   2.4637541e-05   1.4895584e-04   1.3876838e-04   4.9281473e-04   9.3473521e-04   9.5253064e-04   2.7073696e-04  -1.1636822e-04  -1.0987976e-04  -1.5024685e-04   7.9142434e-04   8.2341267e-04   9.5954254e-04   4.9617503e-04   6.2473363e-04   2.5147163e-04   2.4541016e-04   5.3973989e-04   1.4809669e-04   1.7763169e-04  -3.0705187e-04   3.3913162e-04   5.4629323e-04   2.9589105e-04   4.3524957e-06   2.7669576e-04   2.2900050e-04   6.0496270e-04   9.3151427e-04   2.6556705e-04   7.2328929e-04   9.3966671e-04
  -4.0728600e-05  -1.2369445e-04  -1.5373356e-04  -1.3217701e-04  -6.7673162e-05  -4.7342228e-05   6.2142267e-05   9.0857626e-05  -3.2578074e-05  -1.5885445e-05  -6.2542956e-05  -2.0364005e-05   8.1984313e-05   5.7122721e-05   1.2099386e-04   4.2227364e-05  -6.1696636e-05  -5.2317745e-05  -4.8705556e-05  -1.5166529e-04  -1.5191979e-04  -7.2229674e-05  -7.4837917e-05  -1.3234157e-04  -7.1641365e-05  -5.7426661e-05   3.5347855e-05  -3.0810755e-06  -4.1758820e-05   7.8504198e-05   6.2975286e-05  -7.3540670e-05  -6.9460017e-05  -3.9820982e-05  -4.5887470e-05   4.0255411e-05  -9.5481397e-05  -7.7860152e-05   1.0673994e-04   1.5531189e-04   8.2134277e-05   5.6421039e-05   6.9337254e-05   1.0515199e-04  -1.4671353e-05   3.5352232e-05  -5.9848502e-05   8.2844661e-05   1.2963997e-04   1.3098188e-04  -4.9743839e-05  -1.5757496e-05  -3.1340150e-05  -1.2205810e-06   1.4324410e-04   1.1968287e-04   1.3347183e-04   2.2135288e-04   2.1057568e-04   8.9686524e-05   1.2914160e-04   5.7855680e-05   5.3326868e-05   2.1554096e-04   1.4807700e-04   8.5261928e-05   1.0006998e-04  -5.6180725e-05  -5.1360527e-05   1.8834029e-04   1.8301653e-04   1.5136903e-04   2.6307772e-04   1.4502255e-04   3.2619873e-06  -1.2479234e-04   2.0490824e-04   1.2992680e-04  -3.8637800e-04   2.0818526e-04  -1.8910975e-05  -4.5903934e-04  -2.8458499e-04  -9.1559790e-04  -4.1586452e-04  -6.0832493e-04  -2.7456609e-04  -3.7849997e-04   3.3674605e-04  -3.8747597e-04  -5.0584498e-04  -5.9274087e-04  -3.6147354e-04   9.8715929e-05  -9.5377109e-05  -1.6331896e-05   3.1914660e-04  -1.9181433e-04   8.1063408e-06  -4.3037168e-04  -2.6554111e-04  -1.3083956e-05   2.5334027e-04  -6.9150262e-05  -3.9053435e-04  -4.2069630e-04  -6.1450343e-04   2.7882325e-04  -2.8117708e-04  -1.9534969e-04  -5.6199601e-04  -6.9797020e-04  -5.8306730e-04  -9.0099887e-05   1.0944429e-04   6.4663005e-05   1.2857312e-04   2.8334327e-04   1.8063495e-04   6.6843026e-05   5.5601039e-05  -4.2531952e-05   7.0908382e-05   1.5206117e-04   1.1189269e-04   9.2507440e-05   1.4578354e-04   2.3816014e-05  -4.9325296e-05   6.5693345e-05   1.5589960e-04   8.6683663e-05   7.5269287e-05   6.7174508e-05   8.4663082e-05   5.2852043e-05   8.1743015e-05   4.9578260e-05  -8.1973439e-07  -7.9480297e-06   9.5447109e-05   6.5298841e-05  -2.3651610e-05  -5.5399405e-05   4.9480027e-05   9.7369482e-05   1.2745136e-04   6.3777827e-05   1.0585444e-04   4.9090208e-05  -4.3740712e-07   3.3162434e-05   2.7437494e-04   3.2379131e-04   2.9054819e-04   5.0188448e-04   3.9477723e-04   3.0134527e-04   2.0367531e-04   1.4349474e-04   1.6205349e-04   2.3143865e-04   3.8819318e-04   3.9544332e-04   2.2190061e-04   2.3029335e-04   1.3953467e-04   2.1874484e-04   3.4169692e-04   4.1589859e-04   4.9236326e-04   4.8722967e-04   5.5010449e-04   2.9654445e-04   3.4067093e-04   3.1316172e-04   2.3018207e-04   3.6714665e-04   2.4827660e-04   2.6074499e-04   1.9756792e-04   2.0510151e-04   2.7378301e-04   4.6214290e-04   4.4097439e-04   2.1287352e-04   3.0105261e-04   2.2396351e-04   2.5422246e-04   1.6317734e-04   5.4953092e-05  -5.4644980e-05   1.9520660e-05   1.6004758e-04   1.1761635e-04   1.4916738e-05  -4.8578549e-05  -1.8633244e-04  -9.7820104e-06   3.1911018e-05   3.0051480e-05   4.6293168e-05   1.1430985e-04  -4.1453064e-05  -5.9665148e-05   1.8466163e-05   8.8867444e-05   5.8238988e-05   8.0813951e-05   1.2542013e-04   1.7014391e-04   1.6573164e-05   8.5528523e-05  -2.8444018e-05  -5.5027249e-05   1.0159235e-04   1.7154297e-04   4.1058434e-05  -3.4028915e-05  -7.3787489e-05  -1.1312254e-04   1.8357781e-04   1.3827268e-04   5.2314333e-05   9.8946403e-06  -1.4423503e-05  -1.2103915e-04  -4.8351812e-05   7.1762535e-06  -7.5725457e-05   2.5890002e-04   8.3536325e-05   3.6439702e-05  -1.6219194e-05   4.6695116e-04   1.0818537e-04   9.2519526e-05   2.5038948e-04   1.2474513e-04   2.1322664e-05   2.6667697e-04   1.4477122e-04  -4.2839594e-05  -8.8365506e-05   1.4402857e-04  -8.3903933e-05  -1.6118870e-04  -2.5025110e-04  -2.5168251e-04   2.2198767e-05  -5.4515314e-05   2.9406472e-05   1.3366686e-04  -3.1351367e-04  -5.3596585e-05  -9.4429777e-06  -3.2673768e-05  -1.4288868e-04   2.0633541e-04  -2.5302947e-04  -1.2629760e-04  -4.8943799e-05  -1.6038706e-05  -1.5084579e-05   1.2331890e-04   1.1229846e-04   1.5088582e-04   2.4386931e-04   1.8902830e-05   3.5001821e-04   1.1246344e-04   7.4977679e-05   8.8416179e-05   1.3264197e-04   4.7925715e-05   2.5357875e-05   2.1573061e-04   1.6136318e-04   2.0955199e-05   2.5583774e-05   7.0047452e-05   3.0405431e-05   4.0758418e-04   3.5000038e-04   3.2832519e-04   5.1899076e-04   4.8282989e-04   1.6582354e-04   2.2620192e-04   1.0586766e-04  -1.7194714e-05   1.8272200e-04   8.1127993e-05   6.9895910e-05  -4.7593049e-05  -7.4318607e-06  -2.3427119e-05   3.3804943e-04   2.3136129e-04   2.2031427e-04   1.7046427e-04   2.8078570e-05   2.4814958e-04   7.9265322e-05   2.8856334e-04   1.7635003e-04  -1.2473703e-04   1.5026357e-04   1.8752204e-04  -3.6798275e-05  -9.3419338e-05  -4.4271710e-04  -1.4728712e-04  -3.4398709e-05   8.5673064e-05  -1.6283394e-05   5.9231677e-05  -2.5857319e-04  -1.1757627e-04  -1.3976534e-04  -2.6816269e-06   1.0117982e-05  -3.8287349e-05   2.2843659e-04   3.4159197e-04   6.2435774e-05   9.8410480e-05  -5.1957925e-05  -6.5236124e-05   1.4274706e-04   1.5195469e-04  -8.5018864e-06  -1.5015144e-04  -2.8633347e-04  -2.1721319e-04   3.6003786e-04   1.5531990e-04  -1.1768170e-05  -1.5418816e-04  -3.2863705e-04  -6.8453974e-04  -2.6869637e-04  -1.6927200e-05  -4.9709012e-05  -4.8243258e-05   1.0419996e-04   1.3674108e-04  -1.7009304e-05  -6.0652154e-05  -4.8325569e-06   9.2758736e-06  -1.0469564e-04  -6.7704274e-05  -5.8377841e-05   2.6863372e-05   9.0832813e-05   1.5582607e-04   3.4474199e-04   1.4913872e-04   4.1386525e-05   7.3296023e-05   1.2605074e-04   1.4362676e-04   7.2411437e-05   1.3473953e-04   1.1822507e-04   1.1878278e-04   9.3224580e-05   1.1005932e-04   1.3105322e-04   3.4268085e-04   3.0802036e-04   2.6854158e-04   1.5521874e-04   1.3807617e-04   1.8084131e-04   3.9286608e-04   1.9174105e-04   4.7231845e-04   1.7755722e-04  -1.1435770e-04  -1.4859369e-04   2.0707055e-04  -2.3150149e-06   1.9533288e-05  -5.5658896e-05  -1.5408168e-05  -9.5999745e-05   6.0919268e-05   1.1587523e-04  -1.0798068e-04   8.6461556e-06   1.4802985e-04  -6.4195422e-06   4.8930483e-05   8.0571521e-05  -1.3898304e-04  -1.9842122e-04  -2.5451245e-04  -2.1560974e-04  -1.9177748e-04  -3.6541805e-05  -3.7693643e-05  -6.6964802e-05   1.6225441e-05  -3.0314104e-04  -1.8388447e-04  -1.5008774e-05   8.8163416e-05  -5.4368616e-05   1.7951804e-04  -2.9665110e-04  -2.6563182e-04  -8.8502300e-05   1.0596877e-04   7.8123685e-05   6.6568222e-05   5.8167923e-05   6.2697186e-04   6.7520672e-04   5.0111984e-04   3.6909195e-04   1.3035344e-04   6.3711374e-04  -4.2463203e-05   9.2204242e-05   1.6516490e-04   5.2248272e-04   9.7644949e-04   1.0330782e-03   2.5823870e-04  -1.4875514e-04  -1.2476052e-04  -2.1023509e-04   7.8554023e-04   8.6865864e-04   1.0058251e-03   5.7194710e-04   7.2667900e-04   2.7240355e-04   2.8699215e-04   6.1421019e-04   2.0508264e-04   1.9240320e-04  -3.3540653e-04   3.8711746e-04   6.1851559e-04   3.2280567e-04   3.1842604e-05   3.2200642e-04   2.6296051e-04   6.5761037e-04   9.9704106e-04   1.8682521e-04   8.2781728e-04   1.0683360e-03
  -2.9235090e-05  -1.1711858e-04  -1.4790359e-04  -1.2697547e-04  -5.8449745e-05  -3.2875514e-05   7.5119301e-05   1.0269593e-04  -2.8111101e-05  -3.8531306e-06  -4.4607113e-05  -3.6548746e-08   9.9798212e-05   6.9300370e-05   1.3027036e-04   4.9870126e-05  -4.5414125e-05  -3.6374302e-05  -2.8984300e-05  -1.3753305e-04  -1.3236836e-04  -6.2535511e-05  -6.3277064e-05  -1.3180895e-04  -6.6924152e-05  -4.8673759e-05   3.7798435e-05   6.6598707e-06  -3.2147838e-05   9.2522813e-05   7.3378336e-05  -6.2067951e-05  -6.0461023e-05  -2.9756850e-05  -2.5352389e-05   5.5963307e-05  -9.1365436e-05  -7.3196377e-05   1.0115591e-04   1.5424577e-04   8.0135107e-05   6.5636338e-05   7.6907077e-05   1.0717083e-04  -8.2672951e-06   4.5151684e-05  -5.3922566e-05   8.5747353e-05   1.2008588e-04   1.2759630e-04  -5.7840233e-05  -1.1873477e-05  -2.1212552e-05   3.1177839e-05   1.5196575e-04   1.0725830e-04   1.3141929e-04   2.1961693e-04   2.0157894e-04   9.0115648e-05   1.2304163e-04   5.5069356e-05   5.3091261e-05   2.1610039e-04   1.5094020e-04   7.8635324e-05   9.7258726e-05  -6.3236485e-05  -5.5159202e-05   1.8121832e-04   1.8277656e-04   1.4962587e-04   2.6923666e-04   1.6196927e-04  -1.1527642e-05  -1.4247619e-04   2.3876878e-04   1.7357121e-04  -4.3279192e-04   1.6111564e-04  -3.3723595e-05  -4.6856846e-04  -3.2876897e-04  -9.8166006e-04  -4.4234653e-04  -6.5122113e-04  -2.4999041e-04  -3.7475477e-04   3.5387901e-04  -3.5841599e-04  -5.2530934e-04  -6.4000689e-04  -3.3392197e-04   1.6084795e-04  -4.7701717e-05   2.1757495e-05   3.6767390e-04  -1.7414637e-04   3.5802754e-05  -4.1890285e-04  -2.6346187e-04   3.5301686e-05   2.7271549e-04  -5.2841451e-05  -3.9618765e-04  -4.2903699e-04  -6.2318853e-04   3.3544096e-04  -2.6928587e-04  -1.9751703e-04  -6.2590028e-04  -7.6218850e-04  -6.0664598e-04  -1.0058790e-04   1.0816301e-04   6.6994470e-05   1.4303861e-04   2.9635761e-04   1.8382331e-04   7.1471704e-05   7.3792747e-05  -1.3467911e-05   8.4058202e-05   1.6018488e-04   1.1710787e-04   9.3092269e-05   1.4893647e-04   3.6021300e-05  -4.3104199e-05   8.6270080e-05   1.7017304e-04   8.6567658e-05   7.6158802e-05   6.1610490e-05   7.7211897e-05   5.2248342e-05   7.8993019e-05   5.3047246e-05   4.3555339e-06  -8.1955917e-06   9.0090293e-05   7.1358406e-05  -2.1757775e-05  -5.3548057e-05   5.6760496e-05   9.1447103e-05   1.2286407e-04   5.9699299e-05   1.0629327e-04   4.8689708e-05  -2.6097002e-06   3.7271390e-05   2.9216988e-04   3.4025130e-04   3.1649739e-04   5.3057733e-04   4.1197540e-04   3.2007593e-04   1.8757785e-04   1.2659896e-04   1.7608592e-04   2.3976180e-04   4.0652442e-04   4.1176052e-04   2.1350612e-04   2.2420914e-04   1.2797298e-04   2.1695940e-04   3.5794114e-04   4.3428823e-04   5.1330102e-04   5.2733644e-04   5.9124414e-04   3.0215310e-04   3.5881565e-04   3.2758403e-04   2.3535331e-04   3.8593747e-04   2.5413692e-04   2.6710082e-04   2.0374378e-04   1.9638442e-04   2.5889048e-04   4.8463725e-04   4.6047836e-04   2.2305659e-04   3.0931987e-04   2.2459005e-04   2.5713651e-04   1.6179660e-04   6.2422105e-05  -4.9421961e-05   3.4669083e-05   1.8337486e-04   1.2949088e-04   2.3763256e-05  -3.8598323e-05  -1.7536548e-04   1.4378391e-06   4.7312107e-05   4.7505259e-05   5.7334966e-05   1.1845719e-04  -4.0371486e-05  -5.6379573e-05   2.6858235e-05   1.0895299e-04   6.6985477e-05   9.1220236e-05   1.4078964e-04   1.8839975e-04   2.5629327e-05   9.4461793e-05  -2.1872097e-05  -4.8319837e-05   1.0952686e-04   1.7077063e-04   4.7194243e-05  -2.7958463e-05  -6.9254089e-05  -1.1147174e-04   1.9407359e-04   1.4589144e-04   5.6360553e-05   1.4905375e-05  -6.5809012e-06  -1.1659688e-04  -4.2867711e-05   3.4378365e-06  -9.1407830e-05   2.8635235e-04   1.0114527e-04   5.3164056e-05  -1.3999379e-05   4.7168787e-04   9.2935105e-05   1.0822133e-04   2.6363350e-04   1.2212912e-04   1.7526384e-05   2.8089072e-04   1.5335645e-04  -5.2067738e-05  -7.9794627e-05   1.5196063e-04  -8.8508605e-05  -1.6643146e-04  -2.6305333e-04  -2.6636202e-04   2.6435352e-05  -5.4228990e-05   4.0688733e-05   1.3922209e-04  -3.3386958e-04  -5.9877487e-05  -1.1313038e-05  -2.9305343e-05  -1.6088684e-04   2.0417826e-04  -2.6574015e-04  -1.2999841e-04  -5.8804967e-05  -1.4403282e-05  -1.8867921e-05   1.1713559e-04   1.0989321e-04   1.6233732e-04   2.6593045e-04   2.4978907e-05   3.7694687e-04   1.2217486e-04   8.4137515e-05   1.0928523e-04   1.7139915e-04   5.9430530e-05   3.9942428e-05   2.3624292e-04   1.7132560e-04   8.1929346e-07   3.9809077e-05   8.3137930e-05   8.0099225e-05   4.4214480e-04   3.6274802e-04   3.3794757e-04   5.5769021e-04   5.1915969e-04   1.7778232e-04   2.4555616e-04   1.2066212e-04   1.6519167e-06   2.0811798e-04   9.3846843e-05   8.4606342e-05  -3.7756859e-05  -6.1612324e-06   3.8304991e-06   3.6836920e-04   2.6197091e-04   2.4092199e-04   1.9426442e-04   4.5819368e-05   2.5640668e-04   7.6786951e-05   2.8173302e-04   1.8763566e-04  -8.7631949e-05   1.5889319e-04   1.8148622e-04  -4.6909818e-05  -1.0133427e-04  -4.3931598e-04  -1.4153556e-04  -2.0971455e-05   8.6377926e-05  -3.4533504e-05   3.8385709e-05  -2.3790903e-04  -1.3314075e-04  -1.3209434e-04   2.7301430e-06  -1.5539551e-05  -7.5194073e-05   2.0893157e-04   3.3180683e-04   7.3761151e-05   9.4609538e-05  -4.1905983e-05  -6.0657838e-05   1.3746746e-04   1.0878599e-04  -1.2006901e-05  -1.4271678e-04  -2.9112767e-04  -2.3039336e-04   3.3161070e-04   1.2152325e-04  -2.2733784e-05  -1.6102995e-04  -3.3319309e-04  -6.9420458e-04  -2.8139518e-04  -3.1929388e-05  -6.0468397e-05  -5.5263187e-05   9.8383162e-05   1.2211224e-04  -2.2085124e-05  -4.7902567e-05   2.8829137e-05   2.1149148e-05  -1.0695594e-04  -6.4186998e-05  -7.6154900e-05  -6.0422626e-07   8.0760431e-05   1.6051417e-04   3.9394220e-04   1.8373609e-04   3.0503991e-05   6.7086320e-05   1.1666064e-04   1.2981926e-04   6.0235339e-05   1.1931288e-04   1.0158002e-04   1.1510442e-04   1.0516266e-04   1.0791894e-04   1.2641828e-04   3.4768552e-04   2.9090159e-04   2.7947956e-04   1.5279015e-04   1.2602693e-04   1.7817390e-04   4.0898749e-04   1.7631342e-04   4.7776806e-04   1.8163849e-04  -9.0550414e-05  -1.3565221e-04   2.4315549e-04   8.8525039e-05   7.3337743e-05  -1.5630337e-05   8.4568880e-06  -8.1356702e-05   1.0114962e-04   1.5199401e-04  -6.7934298e-05   6.3329554e-05   1.7204128e-04   1.4303185e-05   7.7649134e-05   1.2956096e-04  -9.3737722e-05  -1.5414307e-04  -1.9256648e-04  -1.6218431e-04  -1.4282608e-04  -1.1329663e-05   1.0558981e-08  -4.7007481e-05   3.6468227e-05  -2.7008106e-04  -1.4788951e-04   1.9680773e-05   1.0542945e-04  -4.2726581e-05   2.1648089e-04  -2.4867092e-04  -2.1784148e-04  -6.7086856e-05   1.3784028e-04   1.0253220e-04   9.7930833e-05   7.1163378e-05   6.8498195e-04   7.4077723e-04   5.8961734e-04   4.0934830e-04   1.4575687e-04   6.7893738e-04  -1.1423747e-04   2.9437990e-05   1.8894738e-04   5.4212126e-04   9.9855342e-04   1.0961473e-03   2.4123756e-04  -1.7528418e-04  -1.3994769e-04  -2.7543628e-04   7.5733961e-04   8.9805094e-04   1.0323269e-03   6.3716019e-04   8.1734426e-04   2.8789919e-04   3.2267522e-04   6.8089977e-04   2.6245446e-04   2.0154309e-04  -3.6066402e-04   4.2979356e-04   6.8204973e-04   3.4577722e-04   6.4837256e-05   3.6164505e-04   2.9197755e-04   6.9825598e-04   1.0395035e-03   9.1771358e-05   9.3458420e-04   1.1904183e-03
  -1.7137867e-05  -1.0862202e-04  -1.4053114e-04  -1.1913972e-04  -4.7160961e-05  -1.6819718e-05   8.9395924e-05   1.1493976e-04  -2.3415353e-05   8.7086142e-06  -2.5316009e-05   2.1386967e-05   1.1704803e-04   8.0840148e-05   1.3830964e-04   5.6197259e-05  -2.7761897e-05  -1.9426728e-05  -7.8196309e-06  -1.2032524e-04  -1.0948695e-04  -5.1472519e-05  -5.0366482e-05  -1.2964956e-04  -6.1415989e-05  -3.9032999e-05   3.9410211e-05   1.6105192e-05  -2.2147077e-05   1.0482000e-04   8.2855034e-05  -4.9093181e-05  -5.0136615e-05  -1.9116755e-05  -4.2224854e-06   7.1196306e-05  -8.7404944e-05  -6.8157655e-05   9.4409822e-05   1.5190853e-04   7.3041010e-05   7.4705347e-05   8.4658878e-05   1.0897748e-04   2.5663311e-06   5.7661534e-05  -4.5865887e-05   8.8708035e-05   1.0983337e-04   1.2448736e-04  -6.4180783e-05  -4.8871348e-06  -6.6564764e-06   6.6524078e-05   1.6054107e-04   9.2254308e-05   1.2756902e-04   2.1579659e-04   1.8965944e-04   8.9995878e-05   1.1575710e-04   5.0919340e-05   5.2343966e-05   2.1243235e-04   1.5245189e-04   7.0921774e-05   9.5088396e-05  -6.6995041e-05  -5.5547072e-05   1.7104233e-04   1.7912540e-04   1.4750210e-04   2.7640507e-04   1.8215572e-04  -2.7621344e-05  -1.6004969e-04   2.7771927e-04   2.2770681e-04  -4.8111761e-04   1.0606708e-04  -5.1322973e-05  -4.6981768e-04  -3.6661093e-04  -1.0334347e-03  -4.6112372e-04  -6.8682310e-04  -2.1353392e-04  -3.5912485e-04   3.7137637e-04  -3.1669889e-04  -5.4179194e-04  -6.8208466e-04  -2.9383212e-04   2.3088516e-04   1.1197262e-05   6.7834708e-05   4.1903462e-04  -1.5186152e-04   6.3642525e-05  -3.9960024e-04  -2.5888860e-04   8.7076193e-05   2.9124598e-04  -3.4076039e-05  -3.9564670e-04  -4.3379907e-04  -6.2448166e-04   3.9211626e-04  -2.5105871e-04  -1.9368410e-04  -6.8076304e-04  -8.1785208e-04  -6.2117260e-04  -1.0801057e-04   1.0579489e-04   6.9494064e-05   1.5650434e-04   3.0603944e-04   1.8467746e-04   7.5250399e-05   9.1377888e-05   1.6053428e-05   9.5547544e-05   1.6662453e-04   1.2065775e-04   9.2569926e-05   1.5024438e-04   4.7478034e-05  -3.5110872e-05   1.0487956e-04   1.8034604e-04   8.5067513e-05   7.5864827e-05   5.5414797e-05   6.8158093e-05   5.1449860e-05   7.4756003e-05   5.6640120e-05   1.0333600e-05  -8.9207153e-06   8.3577672e-05   7.6596488e-05  -1.9309306e-05  -4.8928155e-05   6.3720483e-05   8.4044311e-05   1.1671032e-04   5.4919647e-05   1.0552964e-04   4.7760634e-05  -4.3283080e-06   4.1422829e-05   3.0483177e-04   3.5170808e-04   3.3612068e-04   5.4914429e-04   4.2158528e-04   3.3192833e-04   1.6570973e-04   1.0411667e-04   1.8551241e-04   2.4177769e-04   4.1608690e-04   4.1864664e-04   2.0026222e-04   2.1171628e-04   1.1309519e-04   2.1113543e-04   3.6603929e-04   4.4360344e-04   5.2304737e-04   5.5941575e-04   6.2358753e-04   3.0186323e-04   3.7074486e-04   3.3668630e-04   2.3623456e-04   4.0003453e-04   2.5687203e-04   2.6810362e-04   2.0535908e-04   1.8458321e-04   2.3816729e-04   5.0138443e-04   4.7340065e-04   2.2870155e-04   3.0922418e-04   2.1967643e-04   2.5505379e-04   1.5691995e-04   6.9499172e-05  -4.3682191e-05   4.9272768e-05   2.0368616e-04   1.3975056e-04   3.2818697e-05  -3.1103934e-05  -1.6599077e-04   1.1533154e-05   6.1540829e-05   6.3929224e-05   6.8335445e-05   1.2107484e-04  -3.9845323e-05  -5.3570486e-05   3.1523398e-05   1.2591528e-04   7.5151497e-05   1.0088455e-04   1.5618022e-04   2.0612482e-04   3.4871055e-05   1.0331248e-04  -1.4354139e-05  -4.0920816e-05   1.1677493e-04   1.6775500e-04   5.2600424e-05  -2.1433659e-05  -6.3850841e-05  -1.0934754e-04   2.0308689e-04   1.5272821e-04   6.0000086e-05   1.9795239e-05   1.1922301e-06  -1.0993663e-04  -3.5962379e-05  -9.3426672e-07  -1.0644937e-04   3.1240051e-04   1.1727563e-04   6.8225484e-05  -1.2339201e-05   4.6833693e-04   7.4777384e-05   1.2327817e-04   2.7234111e-04   1.1635954e-04   1.1637570e-05   2.8923156e-04   1.5620218e-04  -6.2997972e-05  -7.0470332e-05   1.5723486e-04  -9.3223901e-05  -1.7067149e-04  -2.7345193e-04  -2.7949176e-04   2.8950658e-05  -5.4549554e-05   5.1014453e-05   1.4301597e-04  -3.4979923e-04  -6.5972003e-05  -1.3693109e-05  -2.6521339e-05  -1.8014520e-04   1.9663962e-04  -2.7659073e-04  -1.3408296e-04  -6.8925192e-05  -1.4429218e-05  -2.3909828e-05   1.0859431e-04   1.0580020e-04   1.7247316e-04   2.8554065e-04   2.8097545e-05   3.9788484e-04   1.2941081e-04   9.3055009e-05   1.3313160e-04   2.1505284e-04   6.9300298e-05   5.3809057e-05   2.5354211e-04   1.7877010e-04  -2.1923863e-05   5.3788719e-05   9.8329853e-05   1.3094447e-04   4.7117896e-04   3.6812002e-04   3.4133874e-04   5.8559270e-04   5.4563916e-04   1.8664283e-04   2.6051441e-04   1.3360238e-04   2.0638358e-05   2.2878152e-04   1.0378605e-04   9.8069699e-05  -2.7227876e-05  -6.6198575e-06   3.4539948e-05   3.9156205e-04   2.8820270e-04   2.5761156e-04   2.1542617e-04   6.1504054e-05   2.5630454e-04   7.1069450e-05   2.7274520e-04   1.9950720e-04  -4.3661380e-05   1.7227665e-04   1.7630849e-04  -5.2789835e-05  -1.0587308e-04  -4.2665528e-04  -1.3358420e-04  -4.7948070e-06   8.8895665e-05  -4.8844818e-05   2.1481375e-05  -2.1431625e-04  -1.4884867e-04  -1.2606956e-04   1.0097807e-05  -3.9917330e-05  -1.0964162e-04   1.8753711e-04   3.1818703e-04   8.6824006e-05   9.0822085e-05  -2.6274498e-05  -5.4315509e-05   1.2854434e-04   5.9577324e-05  -1.5559678e-05  -1.3237168e-04  -2.9494914e-04  -2.3958236e-04   2.9662358e-04   8.4088545e-05  -3.3911911e-05  -1.6193838e-04  -3.3144503e-04  -6.9689602e-04  -2.8996849e-04  -5.2112242e-05  -7.2654955e-05  -6.7623421e-05   8.1601521e-05   1.0034347e-04  -3.1153664e-05  -4.3395246e-05   5.4874861e-05   2.9133190e-05  -1.1452759e-04  -6.6605805e-05  -9.9180800e-05  -3.4581001e-05   6.5261894e-05   1.5933406e-04   4.3235473e-04   2.0776775e-04   1.5033626e-05   5.4893318e-05   1.0311064e-04   1.0971358e-04   4.4530595e-05   9.8237639e-05   8.0700376e-05   1.0581921e-04   1.1377343e-04   1.0171428e-04   1.1502049e-04   3.4217978e-04   2.6676034e-04   2.8547821e-04   1.4565565e-04   1.1001458e-04   1.7038464e-04   4.1282884e-04   1.5523244e-04   4.6991799e-04   1.7831370e-04  -6.4920817e-05  -1.2026205e-04   2.6912833e-04   1.7441558e-04   1.2291577e-04   2.3216687e-05   2.9053481e-05  -6.9206139e-05   1.3526966e-04   1.8406047e-04  -2.9066520e-05   1.1445841e-04   1.8855512e-04   3.2045630e-05   1.0269260e-04   1.7285432e-04  -4.9219726e-05  -1.1002817e-04  -1.2906199e-04  -1.0672517e-04  -9.1152587e-05   1.1558788e-05   3.5842390e-05  -2.8922707e-05   5.4580523e-05  -2.3196401e-04  -1.0805662e-04   5.3445371e-05   1.1939902e-04  -3.1129294e-05   2.5073547e-04  -1.9577872e-04  -1.6713239e-04  -4.6073752e-05   1.6411726e-04   1.2238419e-04   1.2711356e-04   8.0238074e-05   7.3378483e-04   7.9442598e-04   6.7192264e-04   4.4162490e-04   1.5693244e-04   7.0685254e-04  -1.8763686e-04  -3.5817541e-05   2.0907263e-04   5.5075747e-04   1.0001567e-03   1.1393036e-03   2.2093154e-04  -1.9329914e-04  -1.5504562e-04  -3.4360160e-04   7.0794539e-04   9.1030261e-04   1.0377340e-03   6.8869322e-04   8.9271906e-04   2.9739395e-04   3.5075484e-04   7.3750815e-04   3.1802409e-04   2.0400128e-04  -3.8258534e-04   4.6514357e-04   7.3452653e-04   3.6454996e-04   1.0249385e-04   3.9330441e-04   3.1451448e-04   7.2561762e-04   1.0575771e-03  -1.5219649e-05   1.0417989e-03   1.3017652e-03
  -4.8329947e-06  -9.8616787e-05  -1.3212719e-04  -1.0901685e-04  -3.4285166e-05   2.0177256e-07   1.0483911e-04   1.2744106e-04  -1.8689846e-05   2.1395284e-05  -5.3086173e-06   4.3156720e-05   1.3326570e-04   9.1425430e-05   1.4503831e-04   6.0999983e-05  -9.1728567e-06  -2.0539236e-06   1.4047790e-05  -1.0055722e-04  -8.4047482e-05  -3.9611062e-05  -3.6612048e-05  -1.2624756e-04  -5.5415059e-05  -2.8749725e-05   4.0386152e-05   2.4934790e-05  -1.2309823e-05   1.1496844e-04   9.1294512e-05  -3.4955646e-05  -3.8827534e-05  -8.2862317e-06   1.6573429e-05   8.5420773e-05  -8.3773778e-05  -6.2993687e-05   8.6976060e-05   1.4856927e-04   6.1380885e-05   8.3948601e-05   9.2698082e-05   1.1082662e-04   1.7762851e-05   7.2589169e-05  -3.5965140e-05   9.2152927e-05   9.9647449e-05   1.2220201e-04  -6.8386215e-05   4.9920195e-06   1.1771592e-05   1.0353346e-04   1.6918166e-04   7.5336819e-05   1.2226931e-04   2.1041521e-04   1.7563553e-04   8.9622229e-05   1.0791157e-04   4.5828901e-05   5.1210606e-05   2.0486902e-04   1.5290234e-04   6.2616331e-05   9.3988487e-05  -6.7227652e-05  -5.2616590e-05   1.5858071e-04   1.7244950e-04   1.4551161e-04   2.8510124e-04   2.0541251e-04  -4.4595287e-05  -1.7705369e-04   3.2215336e-04   2.9233217e-04  -5.3047440e-04   4.5479571e-05  -7.0812426e-05  -4.6196742e-04  -3.9617920e-04  -1.0696652e-03  -4.7133714e-04  -7.1389978e-04  -1.6530477e-04  -3.3046020e-04   3.8997806e-04  -2.6437534e-04  -5.5586906e-04  -7.1881529e-04  -2.4228510e-04   3.0748241e-04   8.0455560e-05   1.2178221e-04   4.7303278e-04  -1.2579352e-04   9.0887974e-05  -3.7317546e-04  -2.5277765e-04   1.3997603e-04   3.0807481e-04  -1.3503886e-05  -3.8890647e-04  -4.3556335e-04  -6.1983161e-04   4.4711583e-04  -2.2726960e-04  -1.8359435e-04  -7.2370173e-04  -8.6331662e-04  -6.2713292e-04  -1.1184901e-04   1.0255991e-04   7.2238810e-05   1.6842586e-04   3.1225645e-04   1.8330785e-04   7.7961789e-05   1.0732126e-04   4.4276664e-05   1.0481257e-04   1.7111509e-04   1.2234103e-04   9.0943191e-05   1.4981156e-04   5.7659679e-05  -2.5957911e-05   1.2020485e-04   1.8571112e-04   8.2200809e-05   7.4268077e-05   4.8737998e-05   5.7743703e-05   5.0525998e-05   6.9161014e-05   6.0313814e-05   1.6825577e-05  -1.0401640e-05   7.6054676e-05   8.0783586e-05  -1.6439891e-05  -4.1721366e-05   7.0055641e-05   7.5350905e-05   1.0920964e-04   4.9629206e-05   1.0362247e-04   4.6291432e-05  -5.3762230e-06   4.5648393e-05   3.1182753e-04   3.5810818e-04   3.4852722e-04   5.5710325e-04   4.2356147e-04   3.3633742e-04   1.3933025e-04   7.7238676e-05   1.8974854e-04   2.3733784e-04   4.1632883e-04   4.1556882e-04   1.8262895e-04   1.9370677e-04   9.5786871e-05   2.0208339e-04   3.6557776e-04   4.4326200e-04   5.2095773e-04   5.8238908e-04   6.4604878e-04   2.9606651e-04   3.7626328e-04   3.4061726e-04   2.3301978e-04   4.0934064e-04   2.5664614e-04   2.6376230e-04   2.0243618e-04   1.7037759e-04   2.1279725e-04   5.1224661e-04   4.7967015e-04   2.2956972e-04   3.0077409e-04   2.0972053e-04   2.4805592e-04   1.4860784e-04   7.6007434e-05  -3.7723015e-05   6.2628416e-05   2.2019466e-04   1.4815348e-04   4.1749181e-05  -2.7226844e-05  -1.5982745e-04   1.9917557e-05   7.3840628e-05   7.8530214e-05   7.8893835e-05   1.2209807e-04  -4.0183496e-05  -5.1782499e-05   3.2059407e-05   1.3884930e-04   8.2507905e-05   1.0957982e-04   1.7138554e-04   2.2306439e-04   4.3980955e-05   1.1199028e-04  -6.1515061e-06  -3.3253715e-05   1.2338860e-04   1.6307641e-04   5.7094549e-05  -1.4809770e-05  -5.7966912e-05  -1.0721683e-04   2.1074488e-04   1.5898315e-04   6.3290155e-05   2.4395607e-05   8.3958042e-06  -1.0140697e-04  -2.7916391e-05  -6.0252245e-06  -1.2045191e-04   3.3649490e-04   1.3137733e-04   8.0982356e-05  -1.1589848e-05   4.5799270e-04   5.4814455e-05   1.3717406e-04   2.7637190e-04   1.0763952e-04   3.6192430e-06   2.9163850e-04   1.5320979e-04  -7.5166004e-05  -6.0806058e-05   1.5974287e-04  -9.8021027e-05  -1.7394903e-04  -2.8148880e-04  -2.9115575e-04   2.9471652e-05  -5.5766263e-05   5.9651655e-05   1.4516398e-04  -3.6109851e-04  -7.1442518e-05  -1.6621004e-05  -2.4804230e-05  -2.0037293e-04   1.8437643e-04  -2.8550612e-04  -1.3855209e-04  -7.8947164e-05  -1.6292560e-05  -3.0047032e-05   9.7773092e-05   1.0001601e-04   1.8077999e-04   3.0177041e-04   2.7925209e-05   4.1221481e-04   1.3371220e-04   1.0108795e-04   1.5888517e-04   2.6140995e-04   7.6823767e-05   6.6116455e-05   2.6668293e-04   1.8301910e-04  -4.6590055e-05   6.6515478e-05   1.1452622e-04   1.8033385e-04   4.9368773e-04   3.6571076e-04   3.3789841e-04   6.0111570e-04   5.6058340e-04   1.9180266e-04   2.7004837e-04   1.4405056e-04   3.8679869e-05   2.4305400e-04   1.1033309e-04   1.0944275e-04  -1.6793057e-05  -9.5371121e-06   6.6761418e-05   4.0604835e-04   3.0859393e-04   2.6963471e-04   2.3276127e-04   7.3882743e-05   2.4825696e-04   6.2380364e-05   2.6246430e-04   2.1164051e-04   4.2960570e-06   1.8980287e-04   1.7215942e-04  -5.4463790e-05  -1.0732469e-04  -4.0638761e-04  -1.2472198e-04   1.2746446e-05   9.2600335e-05  -5.9021791e-05   8.9591461e-06  -1.9011524e-04  -1.6447372e-04  -1.2288958e-04   1.8651743e-05  -6.2302657e-05  -1.4051211e-04   1.6552097e-04   3.0151166e-04   1.0071314e-04   8.7110465e-05  -6.0399772e-06  -4.7143184e-05   1.1647737e-04   6.7269983e-06  -1.9270038e-05  -1.2042619e-04  -2.9901009e-04  -2.4552673e-04   2.5700076e-04   4.4686359e-05  -4.5033910e-05  -1.5755312e-04  -3.2450615e-04  -6.9497073e-04  -2.9511397e-04  -7.6887845e-05  -8.5687169e-05  -8.6052137e-05   5.4084114e-05   7.2133738e-05  -4.4226100e-05  -4.7567528e-05   7.1723388e-05   3.2737927e-05  -1.2765842e-04  -7.5227460e-05  -1.2696404e-04  -7.3944331e-05   4.5082477e-05   1.5227825e-04   4.5866299e-04   2.2031688e-04  -4.8623615e-06   3.6779251e-05   8.5853728e-05   8.4000376e-05   2.6048065e-05   7.2434774e-05   5.6221733e-05   9.1247962e-05   1.1845118e-04   9.1536501e-05   9.7351684e-05   3.2676218e-04   2.3682029e-04   2.8677160e-04   1.3373909e-04   9.0232302e-05   1.5803622e-04   4.0481695e-04   1.2997247e-04   4.4875800e-04   1.6724081e-04  -3.8587869e-05  -1.0308081e-04   2.8434351e-04   2.5077578e-04   1.6543011e-04   5.9035075e-05   4.5712812e-05  -5.9824026e-05   1.6151005e-04   2.1107125e-04   7.0616557e-06   1.5964775e-04   1.9710893e-04   4.6013349e-05   1.2274180e-04   2.0789308e-04  -7.3681733e-06  -6.8379783e-05  -6.7283082e-05  -5.2343618e-05  -3.9408062e-05   3.0811309e-05   6.7903494e-05  -1.3682617e-05   6.9845819e-05  -1.9161193e-04  -6.7445140e-05   8.4591201e-05   1.2985176e-04  -1.9933337e-05   2.8142345e-04  -1.4138716e-04  -1.1700403e-04  -2.6619738e-05   1.8408843e-04   1.3692036e-04   1.5334496e-04   8.5526300e-05   7.7178883e-04   8.3420725e-04   7.4430190e-04   4.6412490e-04   1.6311258e-04   7.1956760e-04  -2.5954178e-04  -9.9828506e-05   2.2461197e-04   5.4778997e-04   9.8125072e-04   1.1609238e-03   1.9859992e-04  -2.0047425e-04  -1.6956057e-04  -4.1216820e-04   6.3959605e-04   9.0481843e-04   1.0216129e-03   7.2392568e-04   9.4935209e-04   3.0056806e-04   3.6983875e-04   7.8214976e-04   3.6963184e-04   1.9895249e-04  -4.0108163e-04   4.9143115e-04   7.7413252e-04   3.7912174e-04   1.4364544e-04   4.1489897e-04   3.2922665e-04   7.3910876e-04   1.0514492e-03  -1.2911752e-04   1.1473235e-03   1.3983789e-03
   7.3150555e-06  -8.7552641e-05  -1.2318035e-04  -9.7034647e-05  -2.0359461e-05   1.7547256e-05   1.2122482e-04   1.4001006e-04  -1.4110281e-05   3.3829812e-05   1.4783513e-05   6.4544787e-05   1.4805517e-04   1.0081533e-04   1.5044233e-04   6.4172620e-05   9.9075087e-06   1.5173563e-05   3.5877000e-05  -7.8808997e-05  -5.6880089e-05  -2.7534957e-05  -2.2517391e-05  -1.2200552e-04  -4.9198227e-05  -1.8083144e-05   4.0953135e-05   3.2881128e-05  -3.1386855e-06   1.2269361e-04   9.8680809e-05  -2.0019171e-05  -2.6894186e-05   2.3669788e-06   3.6189287e-05   9.8188802e-05  -8.0557254e-05  -5.7909841e-05   7.9290375e-05   1.4445509e-04   4.6054357e-05   9.3612383e-05   1.0105066e-04   1.1293028e-04   3.6927039e-05   8.9446892e-05  -2.4636245e-05   9.6487907e-05   9.0240066e-05   1.2116362e-04  -7.0215624e-05   1.7326738e-05   3.3212532e-05   1.4073483e-04   1.7806320e-04   5.7220429e-05   1.1587290e-04   2.0396809e-04   1.6034578e-04   8.9259366e-05   1.0010324e-04   4.0270538e-05   4.9803748e-05   1.9391319e-04   1.5251612e-04   5.4213112e-05   9.4247978e-05  -6.3953008e-05  -4.6745927e-05   1.4461444e-04   1.6325286e-04   1.4405986e-04   2.9560753e-04   2.3127112e-04  -6.2002834e-05  -1.9301008e-04   3.7209549e-04   3.6667540e-04  -5.7979892e-04  -1.8006651e-05  -9.1130206e-05  -4.4455594e-04  -4.1624514e-04  -1.0901141e-03  -4.7263841e-04  -7.3163836e-04  -1.0619223e-04  -2.8819928e-04   4.1040179e-04  -2.0419092e-04  -5.6836775e-04  -7.5068602e-04  -1.8130226e-04   3.8876454e-04   1.5850557e-04   1.8303135e-04   5.2921407e-04  -9.6978146e-05   1.1687035e-04  -3.4061648e-04  -2.4619088e-04   1.9144408e-04   3.2221362e-04   8.0819223e-06  -3.7639290e-04  -4.3505706e-04  -6.1116531e-04   4.9861645e-04  -1.9897958e-04  -1.6741977e-04  -7.5264537e-04  -8.9774541e-04  -6.2566914e-04  -1.1188205e-04   9.8687542e-05   7.5268528e-05   1.7833072e-04   3.1501206e-04   1.7990286e-04   7.9422553e-05   1.2065530e-04   6.9537306e-05   1.1143776e-04   1.7345501e-04   1.2203552e-04   8.8245258e-05   1.4781295e-04   6.6128343e-05  -1.6359280e-05   1.3108020e-04   1.8581893e-04   7.8026453e-05   7.1275350e-05   4.1701509e-05   4.6246654e-05   4.9528800e-05   6.2388048e-05   6.4015337e-05   2.3507629e-05  -1.2879173e-05   6.7648222e-05   8.3748137e-05  -1.3297345e-05  -3.2250435e-05   7.5486883e-05   6.5577623e-05   1.0058393e-04   4.4006582e-05   1.0065249e-04   4.4288256e-05  -5.5298640e-06   4.9996692e-05   3.1284300e-04   3.5956841e-04   3.5323579e-04   5.5454118e-04   4.1821445e-04   3.3311618e-04   1.0995068e-04   4.7422320e-05   1.8851673e-04   2.2666143e-04   4.0717085e-04   4.0248740e-04   1.6125074e-04   1.7137736e-04   7.7009325e-05   1.9075597e-04   3.5661573e-04   4.3311293e-04   5.0694844e-04   5.9554274e-04   6.5791743e-04   2.8541778e-04   3.7547085e-04   3.3978851e-04   2.2607754e-04   4.1391635e-04   2.5365328e-04   2.5433634e-04   1.9525058e-04   1.5449383e-04   1.8412138e-04   5.1721966e-04   4.7940998e-04   2.2563760e-04   2.8446331e-04   1.9550540e-04   2.3643467e-04   1.3709893e-04   8.1779918e-05  -3.1833832e-05   7.4098498e-05   2.3229966e-04   1.5454606e-04   5.0226509e-05  -2.7904536e-05  -1.5829049e-04   2.6102412e-05   8.3547892e-05   9.0611518e-05   8.8608140e-05   1.2149753e-04  -4.1667774e-05  -5.1526623e-05   2.8311727e-05   1.4705614e-04   8.8849881e-05   1.1711926e-04   1.8616681e-04   2.3895051e-04   5.2644942e-05   1.2038443e-04   2.4465474e-06  -2.5754670e-05   1.2941179e-04   1.5734608e-04   6.0520593e-05  -8.4536326e-06  -5.2030289e-05  -1.0554635e-04   2.1718766e-04   1.6483881e-04   6.6294323e-05   2.8546870e-05   1.4565486e-05  -9.1476798e-05  -1.9085042e-05  -1.1873941e-05  -1.3309918e-04   3.5819699e-04   1.4307349e-04   9.0978921e-05  -1.2011463e-05   4.4221015e-04   3.4307457e-05   1.4945146e-04   2.7589083e-04   9.6354434e-05  -6.4043282e-06   2.8842229e-04   1.4469589e-04  -8.7963683e-05  -5.1161418e-05   1.5955735e-04  -1.0281575e-04  -1.7626817e-04  -2.8723520e-04  -3.0140750e-04   2.7866851e-05  -5.8059868e-05   6.5988192e-05   1.4586222e-04  -3.6777946e-04  -7.5861923e-05  -2.0099744e-05  -2.4541589e-05  -2.2118322e-04   1.6835647e-04  -2.9241778e-04  -1.4327899e-04  -8.8497705e-05  -1.9997955e-05  -3.6998593e-05   8.4826327e-05   9.2589609e-05   1.8669794e-04   3.1371848e-04   2.4277829e-05   4.1960255e-04   1.3471475e-04   1.0751577e-04   1.8527400e-04   3.0800975e-04   8.1385611e-05   7.6096311e-05   2.7482590e-04   1.8341561e-04  -7.2424208e-05   7.7046261e-05   1.3052219e-04   2.2572931e-04   5.0890834e-04   3.5538492e-04   3.2719228e-04   6.0315383e-04   5.6272438e-04   1.9276770e-04   2.7329045e-04   1.5142662e-04   5.4718413e-05   2.4951867e-04   1.1305273e-04   1.1792437e-04  -7.3102744e-06  -1.5518499e-05   9.8434126e-05   4.1058436e-04   3.2190175e-04   2.7641192e-04   2.4514495e-04   8.1903933e-05   2.3302297e-04   5.1091613e-05   2.5168230e-04   2.2355070e-04   5.2999433e-05   2.1041977e-04   1.6894248e-04  -5.2370772e-05  -1.0628840e-04  -3.8075445e-04  -1.1630524e-04   3.0096851e-05   9.6614292e-05  -6.5309972e-05   8.2164236e-07  -1.6755252e-04  -1.7980388e-04  -1.2349889e-04   2.7425805e-05  -8.2218423e-05  -1.6703590e-04   1.4405071e-04   2.8254267e-04   1.1436539e-04   8.3403978e-05   1.7430649e-05  -4.0172366e-05   1.0196561e-04  -4.7127621e-05  -2.3271204e-05  -1.0837230e-04  -3.0440104e-04  -2.4930619e-04   2.1483668e-04   5.0216795e-06  -5.5905966e-05  -1.4908151e-04  -3.1391105e-04  -6.9098294e-04  -2.9780280e-04  -1.0537057e-04  -9.8915349e-05  -1.1084464e-04   1.6804826e-05   3.8554402e-05  -6.1010025e-05  -6.0093976e-05   7.8598150e-05   3.1831950e-05  -1.4613341e-04  -8.9783630e-05  -1.5862711e-04  -1.1725242e-04   2.1144213e-05   1.3969479e-04   4.7240556e-04   2.2138660e-04  -2.8693170e-05   1.3272474e-05   6.5604643e-05   5.3744087e-05   5.7323995e-06   4.3131857e-05   2.8988448e-05   7.2029233e-05   1.1885484e-04   7.7747763e-05   7.4346466e-05   3.0262273e-04   2.0250095e-04   2.8371673e-04   1.1726027e-04   6.7098488e-05   1.4199255e-04   3.8622665e-04   1.0229721e-04   4.1503893e-04   1.4855248e-04  -1.2603048e-05  -8.4732693e-05   2.8910657e-04   3.1374492e-04   1.9859535e-04   9.0285885e-05   5.8154727e-05  -5.3143548e-05   1.7867699e-04   2.3242457e-04   3.9189372e-05   1.9700130e-04   1.9783666e-04   5.5705167e-05   1.3680996e-04   2.3265954e-04   3.0116183e-05  -3.1170298e-05  -1.0202076e-05  -1.9700648e-06   9.8763910e-06   4.5462235e-05   9.4634315e-05  -1.8827842e-06   8.1864802e-05  -1.5198551e-04  -2.9323779e-05   1.1162748e-04   1.3689309e-04  -9.3996760e-06   3.0802160e-04  -8.8987010e-05  -7.0921225e-05  -9.7346563e-06   1.9760949e-04   1.4579919e-04   1.7618520e-04   8.7552622e-05   7.9781365e-04   8.5879960e-04   8.0318998e-04   4.7538863e-04   1.6372439e-04   7.1643812e-04  -3.2691764e-04  -1.5886941e-04   2.3480773e-04   5.3300949e-04   9.4269449e-04   1.1602686e-03   1.7552134e-04  -1.9499062e-04  -1.8290785e-04  -4.7837656e-04   5.5548903e-04   8.8173542e-04   9.8444453e-04   7.4087391e-04   9.8453140e-04   2.9734115e-04   3.7891707e-04   8.1342684e-04   4.1525783e-04   1.8585493e-04  -4.1619052e-04   5.0731694e-04   7.9969326e-04   3.8973540e-04   1.8685981e-04   4.2470965e-04   3.3503157e-04   7.3885290e-04   1.0227522e-03  -2.4456555e-04   1.2486568e-03   1.4766196e-03
   1.8987190e-05  -7.5894180e-05  -1.1413111e-04  -8.3677073e-05  -5.9463863e-06   3.4591663e-05   1.3824167e-04   1.5241333e-04  -9.8223954e-06   4.5675869e-05   3.4353885e-05   8.4873801e-05   1.6111697e-04   1.0884794e-04   1.5456169e-04   6.5715643e-05   2.9025613e-05   3.1707329e-05   5.6955135e-05  -5.5710223e-05  -2.8837123e-05  -1.5806789e-05  -8.5611690e-06  -1.1731267e-04  -4.3004657e-05  -7.3081174e-06   4.1330561e-05   3.9735286e-05   4.9468272e-06   1.2788321e-04   1.0507727e-04  -4.6645311e-06  -1.4703924e-05   1.2505487e-05   5.3909837e-05   1.0916519e-04  -7.7772011e-05  -5.3065484e-05   7.1714572e-05   1.3973071e-04   2.8264385e-05   1.0379821e-04   1.0962939e-04   1.1543021e-04   5.9336874e-05   1.0756829e-04  -1.2405200e-05   1.0206423e-04   8.2230606e-05   1.2164240e-04  -6.9584692e-05   3.1470675e-05   5.6556668e-05   1.7651849e-04   1.8728626e-04   3.8621528e-05   1.0870328e-04   1.9687263e-04   1.4458219e-04   8.9112384e-05   9.2850188e-05   3.4709680e-05   4.8210017e-05   1.8019963e-04   1.5142708e-04   4.6158783e-05   9.6000208e-05  -5.7425952e-05  -3.8570901e-05   1.2986729e-04   1.5212014e-04   1.4340808e-04   3.0793231e-04   2.5897270e-04  -7.9383298e-05  -2.0744268e-04   4.2710668e-04   4.4913677e-04  -6.2790725e-04  -8.1747824e-05  -1.1111893e-04  -4.1758911e-04  -4.2636840e-04  -1.0955749e-03  -4.6525027e-04  -7.3972762e-04  -3.7930638e-05  -2.3249100e-04   4.3327798e-04  -1.3944074e-04  -5.8033117e-04  -7.7880239e-04  -1.1382459e-04   4.7235363e-04   2.4306865e-04   2.5050851e-04   5.8683059e-04  -6.6600263e-05   1.4098866e-04  -3.0316985e-04  -2.4022321e-04   2.3876423e-04   3.3263340e-04   2.9762154e-05  -3.5896326e-04  -4.3313877e-04  -6.0073909e-04   5.4477820e-04  -1.6749781e-04  -1.4579665e-04  -7.6653474e-04  -9.2119774e-04  -6.1853448e-04  -1.0823051e-04   9.4408531e-05   7.8587868e-05   1.8586045e-04   3.1444648e-04   1.7471744e-04   7.9502412e-05   1.3054119e-04   9.0358862e-05   1.1518400e-04   1.7352129e-04   1.1971217e-04   8.4544538e-05   1.4448162e-04   7.2556353e-05  -7.0831201e-06   1.3657947e-04   1.8051381e-04   7.2650486e-05   6.6837103e-05   3.4398547e-05   3.3976397e-05   4.8491265e-05   5.4664735e-05   6.7686058e-05   3.0042681e-05  -1.6525608e-05   5.8477878e-05   8.5385952e-05  -1.0032254e-05  -2.0952393e-05   7.9773184e-05   5.4954888e-05   9.1055124e-05   3.8214277e-05   9.6718371e-05   4.1778766e-05  -4.5680684e-06   5.4528331e-05   3.0780502e-04   3.5636660e-04   3.5022435e-04   5.4210863e-04   4.0617160e-04   3.2247285e-04   7.9239919e-05   1.6290530e-05   1.8187258e-04   2.1033289e-04   3.8902645e-04   3.7988590e-04   1.3692922e-04   1.4614129e-04   5.7723709e-05   1.7815278e-04   3.3969525e-04   4.1346703e-04   4.8152004e-04   5.9855950e-04   6.5890397e-04   2.7078386e-04   3.6875578e-04   3.3483417e-04   2.1592941e-04   4.1396667e-04   2.4809957e-04   2.4033255e-04   1.8431718e-04   1.3765526e-04   1.5354830e-04   5.1641936e-04   4.7291642e-04   2.1709830e-04   2.6124632e-04   1.7804995e-04   2.2069940e-04   1.2281375e-04   8.6666744e-05  -2.6284129e-05   8.3160725e-05   2.3961497e-04   1.5886400e-04   5.7944985e-05  -3.3811151e-05  -1.6247993e-04   2.9728036e-05   9.0133415e-05   9.9614182e-05   9.7098607e-05   1.1928600e-04  -4.4536950e-05  -5.3245041e-05   2.0370629e-05   1.5008570e-04   9.4004901e-05   1.2335888e-04   2.0025155e-04   2.5350425e-04   6.0566500e-05   1.2836153e-04   1.1138562e-05  -1.8848817e-05   1.3486223e-04   1.5115949e-04   6.2756121e-05  -2.7216077e-06  -4.6489966e-05  -1.0477423e-04   2.2254180e-04   1.7043641e-04   6.9069280e-05   3.2106304e-05   1.9306701e-05  -8.0710567e-05  -9.8750949e-06  -1.8466383e-05  -1.4416867e-04   3.7722028e-04   1.5219092e-04   9.7971041e-05  -1.3750742e-05   4.2286577e-04   1.4564889e-05   1.5974311e-04   2.7136292e-04   8.3047341e-05  -1.8155153e-05   2.8023324e-04   1.3136074e-04  -1.0070044e-04  -4.1832774e-05   1.5691951e-04  -1.0748139e-04  -1.7761143e-04  -2.9078304e-04  -3.1024941e-04   2.4158222e-05  -6.1485099e-05   6.9588716e-05   1.4536860e-04  -3.7006440e-04  -7.8856444e-05  -2.4095231e-05  -2.5976266e-05  -2.4211175e-04   1.4977162e-04  -2.9727359e-04  -1.4802507e-04  -9.7216293e-05  -2.5378489e-05  -4.4394273e-05   7.0011753e-05   8.3636629e-05   1.8964599e-04   3.2056839e-04   1.7134032e-05   4.1999447e-04   1.3216291e-04   1.1158816e-04   2.1094330e-04   3.5235045e-04   8.2524156e-05   8.3108116e-05   2.7727927e-04   1.7936405e-04  -9.8639801e-05   8.4583367e-05   1.4513550e-04   2.6484192e-04   5.1634741e-04   3.3727191e-04   3.0897554e-04   5.9113900e-04   5.5129350e-04   1.8918299e-04   2.6959656e-04   1.5523805e-04   6.7785856e-05   2.4710446e-04   1.1170874e-04   1.2279427e-04   3.5110543e-07  -2.4968259e-05   1.2755450e-04   4.0434677e-04   3.2716394e-04   2.7755709e-04   2.5158138e-04   8.4800684e-05   2.1163012e-04   3.7644237e-05   2.4108299e-04   2.3466785e-04   9.9087131e-05   2.3273666e-04   1.6632459e-04  -4.7303955e-05  -1.0364029e-04  -3.5244967e-04  -1.0964372e-04   4.5658793e-05   9.9904466e-05  -6.8358234e-05  -3.3229759e-06  -1.4860755e-04  -1.9464589e-04  -1.2848806e-04   3.5336416e-05  -9.9422600e-05  -1.8878954e-04   1.2412367e-04   2.6199396e-04   1.2666255e-04   7.9526013e-05   4.2498196e-05  -3.4422798e-05   8.5877165e-05  -9.9282486e-05  -2.7682449e-05  -9.7760448e-05  -3.1196875e-04  -2.5222674e-04   1.7228285e-04  -3.3263191e-05  -6.6417935e-05  -1.3819173e-04  -3.0148595e-04  -6.8745909e-04  -2.9916378e-04  -1.3643204e-04  -1.1166022e-04  -1.4179869e-04  -2.8571512e-05   9.8843496e-07  -8.0918046e-05  -7.9952693e-05   7.5527623e-05   2.6639405e-05  -1.6928528e-04  -1.0948179e-04  -1.9295356e-04  -1.6282948e-04  -5.5396387e-06   1.2224962e-04   4.7394025e-04   2.1186071e-04  -5.5633195e-05  -1.4637633e-05   4.3323138e-05   2.0342570e-05  -1.5325915e-05   1.1786810e-05   2.8198792e-08   4.9074578e-05   1.1494409e-04   6.0981583e-05   4.7327513e-05   2.7143849e-04   1.6531517e-04   2.7671956e-04   9.6770898e-05   4.1274287e-05   1.2336504e-04   3.5906184e-04   7.4114018e-05   3.7024258e-04   1.2285499e-04   1.2107270e-05  -6.5751484e-05   2.8462879e-04   3.6046406e-04   2.2085158e-04   1.1583547e-04   6.6468346e-05  -4.8798093e-05   1.8622527e-04   2.4792440e-04   6.6400034e-05   2.2521834e-04   1.9142927e-04   6.0941237e-05   1.4431070e-04   2.4581631e-04   6.1859580e-05   8.8627549e-08   3.9716091e-05   4.1847149e-05   5.4452047e-05   5.4973255e-05   1.1491788e-04   6.2962750e-06   9.0574456e-05  -1.1597883e-04   3.0544365e-06   1.3335519e-04   1.4091249e-04   3.0709664e-07   3.3036310e-04  -4.1916813e-05  -3.2065613e-05   3.7737653e-06   2.0508475e-04   1.4911592e-04   1.9551028e-04   8.7166732e-05   8.1114255e-04   8.6757278e-04   8.4540440e-04   4.7438007e-04   1.5840819e-04   6.9749937e-04  -3.8697243e-04  -2.0943179e-04   2.3911238e-04   5.0662422e-04   8.8615873e-04   1.1375147e-03   1.5289608e-04  -1.7568070e-04  -1.9442054e-04  -5.3939551e-04   4.5955636e-04   8.4190997e-04   9.2758898e-04   7.3830180e-04   9.9643800e-04   2.8785820e-04   3.7739514e-04   8.3047482e-04   4.5312587e-04   1.6448930e-04  -4.2804871e-04   5.1194366e-04   8.1073695e-04   3.9685589e-04   2.3050144e-04   4.2148330e-04   3.3116905e-04   7.2563808e-04   9.7436781e-04  -3.5619192e-04   1.3429489e-03   1.5334294e-03
   2.9913254e-05  -6.4101597e-05  -1.0534715e-04  -6.9454543e-05   8.3997101e-06   5.0756612e-05   1.5550409e-04   1.6437558e-04  -5.9393273e-06   5.6647327e-05   5.2838104e-05   1.0354599e-04   1.7225810e-04   1.1544020e-04   1.5748129e-04   6.5728895e-05   4.7726316e-05   4.7033542e-05   7.6619412e-05  -3.1923512e-05  -7.6472676e-07  -4.9363986e-06   4.8226408e-06  -1.1251757e-04  -3.7025937e-05   3.2862658e-06   4.1703965e-05   4.5349455e-05   1.1637378e-05   1.3058824e-04   1.1061086e-04   1.0715849e-05  -2.6236219e-06   2.1829988e-05   6.9186824e-05   1.1814037e-04  -7.5388159e-05  -4.8573509e-05   6.4512475e-05   1.3448635e-04   9.4138443e-06   1.1441430e-04   1.1821114e-04   1.1838571e-04   8.3968392e-05   1.2613490e-04   1.1891679e-07   1.0912993e-04   7.6102533e-05   1.2373841e-04  -6.6569740e-05   4.6605124e-05   8.0509430e-05   2.0920699e-04   1.9685101e-04   2.0219535e-05   1.0101857e-04   1.8942855e-04   1.2902971e-04   8.9301158e-05   8.6557165e-05   2.9560221e-05   4.6479370e-05   1.6444367e-04   1.4965257e-04   3.8826073e-05   9.9207909e-05  -4.8115691e-05  -2.8948580e-05   1.1495022e-04   1.3966594e-04   1.4364992e-04   3.2179966e-04   2.8749814e-04  -9.6279908e-05  -2.1989647e-04   4.8622363e-04   5.3729183e-04  -6.7359342e-04  -1.4329300e-04  -1.2965855e-04  -3.8159172e-04  -4.2695401e-04  -1.0878106e-03  -4.4998570e-04  -7.3842127e-04   3.6890822e-05  -1.6429217e-04   4.5906654e-04  -7.3759365e-05  -5.9295869e-04  -8.0481769e-04  -4.3630226e-05   5.5541108e-04   3.3118593e-04   3.2260487e-04   6.4480467e-04  -3.5949935e-05   1.6270994e-04  -2.6231314e-04  -2.3591667e-04   2.7922010e-04   3.3832363e-04   5.0522298e-05  -3.3789715e-04  -4.3073491e-04  -5.9098299e-04   5.8383038e-04  -1.3433877e-04  -1.1982819e-04  -7.6542169e-04  -9.3460360e-04  -6.0798903e-04  -1.0140905e-04   8.9945031e-05   8.2166168e-05   1.9080209e-04   3.1082810e-04   1.6805752e-04   7.8134623e-05   1.3631339e-04   1.0554342e-04   1.1599833e-04   1.7128794e-04   1.1544500e-04   7.9945068e-05   1.4009876e-04   7.6735163e-05   1.0972489e-06   1.3608525e-04   1.6994914e-04   6.6227988e-05   6.0961993e-05   2.6899030e-05   2.1265454e-05   4.7428957e-05   4.6255463e-05   7.1268840e-05   3.6106134e-05  -2.1422032e-05   4.8659398e-05   8.5675943e-05  -6.7910407e-06  -8.3472965e-06   8.2719407e-05   4.3732193e-05   8.0841238e-05   3.2396267e-05   9.1931280e-05   3.8818062e-05  -2.2880762e-06   5.9309400e-05   2.9689159e-04   3.4891541e-04   3.3993847e-04   5.2096612e-04   3.8832672e-04   3.0500852e-04   4.8921101e-05  -1.4482938e-05   1.7021695e-04   1.8928052e-04   3.6280959e-04   3.4876438e-04   1.1058870e-04   1.1951747e-04   3.8819305e-05   1.6523935e-04   3.1582259e-04   3.8509539e-04   4.4574487e-04   5.9154340e-04   6.4915844e-04   2.5317509e-04   3.5676483e-04   3.2655984e-04   2.0321879e-04   4.0983605e-04   2.4020120e-04   2.2247673e-04   1.7035909e-04   1.2054619e-04   1.2247222e-04   5.1006647e-04   4.6063850e-04   2.0436167e-04   2.3247188e-04   1.5852506e-04   2.0157180e-04   1.0635464e-04   9.0540656e-05  -2.1313349e-05   8.9441736e-05   2.4199148e-04   1.6113280e-04   6.4638283e-05  -4.5303846e-05  -1.7309585e-04   3.0580053e-05   9.3241990e-05   1.0514779e-04   1.0403110e-04   1.1552051e-04  -4.8968319e-05  -5.7277832e-05   8.5541548e-06   1.4775563e-04   9.7841061e-05   1.2820079e-04   2.1334664e-04   2.6644204e-04   6.7480838e-05   1.3576971e-04   1.9628790e-05  -1.2923924e-05   1.3971770e-04   1.4504689e-04   6.3718929e-05   2.0585938e-06  -4.1791139e-05  -1.0528598e-04   2.2690190e-04   1.7585240e-04   7.1655148e-05   3.4955608e-05   2.2319553e-05  -6.9732175e-05  -7.2202150e-07  -2.5722883e-05  -1.5354952e-04   3.9345837e-04   1.5877590e-04   1.0193813e-04  -1.6821546e-05   4.0198470e-04  -3.1708817e-06   1.6778655e-04   2.6352574e-04   6.8391707e-05  -3.1201712e-05   2.6799534e-04   1.1422444e-04  -1.1266942e-04  -3.3063941e-05   1.5220691e-04  -1.1186381e-04  -1.7796003e-04  -2.9223700e-04  -3.1762694e-04   1.8518068e-05  -6.5964913e-05   7.0236564e-05   1.4398094e-04  -3.6835960e-04  -8.0154446e-05  -2.8537866e-05  -2.9186570e-05  -2.6263808e-04   1.2994322e-04  -3.0005394e-04  -1.5247775e-04  -1.0477959e-04  -3.2112812e-05  -5.1803792e-05   5.3699620e-05   7.3352331e-05   1.8905883e-04   3.2164239e-04   6.6301825e-06   4.1360354e-04   1.2592085e-04   1.1257171e-04   2.3457281e-04   3.9210870e-04   7.9956718e-05   8.6683097e-05   2.7355487e-04   1.7037565e-04  -1.2444571e-04   8.8546011e-05   1.5732298e-04   2.9577833e-04   5.1579982e-04   3.1174941e-04   2.8322019e-04   5.6506507e-04   5.2606163e-04   1.8085999e-04   2.5859259e-04   1.5510607e-04   7.7068628e-05   2.3517962e-04   1.0627577e-04   1.2346695e-04   5.3628454e-06  -3.8041442e-05   1.5234021e-04   3.8700160e-04   3.2376692e-04   2.7288856e-04   2.5126190e-04   8.2159162e-05   1.8529426e-04   2.2527695e-05   2.3120366e-04   2.4439044e-04   1.3933961e-04   2.5515747e-04   1.6379231e-04  -4.0332227e-05  -1.0047601e-04  -3.2442698e-04  -1.0588970e-04   5.7917629e-05   1.0141021e-04  -6.9127667e-05  -4.2070339e-06  -1.3483805e-04  -2.0883112e-04  -1.3802069e-04   4.1290637e-05  -1.1387806e-04  -2.0567452e-04   1.0655237e-04   2.4051613e-04   1.3655082e-04   7.5221156e-05   6.7390240e-05  -3.0810253e-05   6.9222592e-05  -1.4712020e-04  -3.2575458e-05  -9.0058259e-05  -3.2220747e-04  -2.5571388e-04   1.3142870e-04  -6.8643986e-05  -7.6526103e-05  -1.2686743e-04  -2.8919523e-04  -6.8664856e-04  -3.0037357e-04  -1.6877636e-04  -1.2325855e-04  -1.7819896e-04  -7.9797857e-05  -3.8953417e-05  -1.0309572e-04  -1.0555074e-04   6.3260731e-05   1.7715213e-05  -1.9603990e-04  -1.3305681e-04  -2.2844055e-04  -2.0887795e-04  -3.3944659e-05   1.0085735e-04   4.6434075e-04   1.9340315e-04  -8.4555016e-05  -4.5546079e-05   2.0179926e-05  -1.4539592e-05  -3.5961472e-05  -1.9999549e-05  -2.9485403e-05   2.3504843e-05   1.0699865e-04   4.2117257e-05   1.7904381e-05   2.3522597e-04   1.2675620e-04   2.6619555e-04   7.3151207e-05   1.3671612e-05   1.0343601e-04   3.2586808e-04   4.7310685e-05   3.1648086e-04   9.1184470e-05   3.4803303e-05  -4.6548405e-05   2.7288101e-04   3.8927757e-04   2.3147531e-04   1.3501700e-04   7.1090213e-05  -4.6175430e-05   1.8426858e-04   2.5775628e-04   8.8152131e-05   2.4366542e-04   1.7904659e-04   6.1850965e-05   1.4507772e-04   2.4679033e-04   8.6876437e-05   2.4422088e-05   8.0664851e-05   7.7111635e-05   9.2499224e-05   5.9255185e-05   1.2815331e-04   1.1099523e-05   9.6240382e-05  -8.6226967e-05   2.6685692e-05   1.4893916e-04   1.4254568e-04   9.1032928e-06   3.4860867e-04  -3.1315739e-06  -3.1194480e-06   1.3345268e-05   2.0740884e-04   1.4736830e-04   2.1150377e-04   8.5449110e-05   8.1154140e-04   8.6059857e-04   8.6836989e-04   4.6056366e-04   1.4704486e-04   6.6345682e-04  -4.3731039e-04  -2.4843232e-04   2.3721435e-04   4.6923073e-04   8.1399895e-04   1.0937293e-03   1.3176897e-04  -1.4215850e-04  -2.0337879e-04  -5.9245555e-04   3.5620385e-04   7.8686660e-04   8.5321015e-04   7.1578683e-04   9.8424218e-04   2.7246888e-04   3.6512013e-04   8.3298124e-04   4.8178841e-04   1.3498747e-04  -4.3687795e-04   5.0499164e-04   8.0749965e-04   4.0111883e-04   2.7281194e-04   4.0453808e-04   3.1725031e-04   7.0083178e-04   9.1016115e-04  -4.5891395e-04   1.4270502e-03   1.5665520e-03
   3.9877219e-05  -5.2612760e-05  -9.7109983e-05  -5.4875351e-05   2.2166399e-05   6.5534259e-05   1.7256796e-04   1.7558611e-04  -2.5396665e-06   6.6517089e-05   6.9727453e-05   1.2005831e-04   1.8139811e-04   1.2057843e-04   1.5931746e-04   6.4399660e-05   6.5559297e-05   6.0681215e-05   9.4274696e-05  -8.1249119e-06   2.6524059e-05   4.6462981e-06   1.7256803e-05  -1.0790523e-04  -3.1400706e-05   1.3399374e-05   4.2201088e-05   4.9633142e-05   1.6749036e-05   1.3100516e-04   1.1544321e-04   2.5721163e-05   8.9891906e-06   3.0085698e-05   8.1661148e-05   1.2503720e-04  -7.3352877e-05  -4.4508230e-05   5.7829135e-05   1.2873486e-04  -9.0082946e-06   1.2515120e-04   1.2643644e-04   1.2175825e-04   1.0954397e-04   1.4421547e-04   1.2279766e-05   1.1781294e-04   7.2182595e-05   1.2736976e-04  -6.1399913e-05   6.1785451e-05   1.0368122e-04   2.3714086e-04   2.0663732e-04   2.6115627e-06   9.2997410e-05   1.8179669e-04   1.1421788e-04   8.9849421e-05   8.1481357e-05   2.5139530e-05   4.4618252e-05   1.4739332e-04   1.4710045e-04   3.2483999e-05   1.0366714e-04  -3.6670795e-05  -1.8890873e-05   1.0031969e-04   1.2648896e-04   1.4470619e-04   3.3666522e-04   3.1562343e-04  -1.1225252e-04  -2.2996437e-04   5.4796461e-04   6.2796349e-04  -7.1571368e-04  -2.0055229e-04  -1.4573567e-04  -3.3765246e-04  -4.1919614e-04  -1.0694276e-03  -4.2824262e-04  -7.2854584e-04   1.1488152e-04  -8.5418444e-05   4.8799196e-04  -1.0887234e-05  -6.0752958e-04  -8.3082095e-04   2.4816220e-05   6.3476720e-04   4.1932336e-04   3.9720704e-04   7.0172606e-04  -6.3706860e-06   1.8154574e-04  -2.1972238e-04  -2.3420315e-04   3.1026394e-04   3.3839360e-04   6.9283235e-05  -3.1483527e-04  -4.2880660e-04  -5.8431859e-04   6.1416000e-04  -1.0115686e-04  -9.1045595e-05  -7.5050176e-04  -9.3972704e-04  -5.9666703e-04  -9.2288837e-05   8.5502002e-05   8.5939912e-05   1.9310725e-04   3.0454109e-04   1.6026273e-04   7.5324831e-05   1.3751611e-04   1.1424398e-04   1.1401132e-04   1.6683158e-04   1.0941361e-04   7.4589066e-05   1.3497721e-04   7.8576635e-05   7.4524244e-06   1.2933771e-04   1.5458464e-04   5.8964778e-05   5.3727640e-05   1.9257634e-05   8.4608321e-06   4.6341419e-05   3.7450687e-05   7.4710400e-05   4.1405236e-05  -2.7542329e-05   3.8317621e-05   8.4680990e-05  -3.7081662e-06   4.9971016e-06   8.4185704e-05   3.2174674e-05   7.0157695e-05   2.6676665e-05   8.6411578e-05   3.5489464e-05   1.4817895e-06   6.4399747e-05   2.8054550e-04   3.3773445e-04   3.2326730e-04   4.9269518e-04   3.6576817e-04   2.8168699e-04   2.0670524e-05  -4.3284586e-05   1.5427610e-04   1.6471694e-04   3.2990248e-04   3.1060971e-04   8.3236058e-05   9.3035544e-05   2.1053830e-05   1.5286081e-04   2.8641750e-04   3.4920911e-04   4.0121536e-04   5.7501616e-04   6.2927107e-04   2.3368254e-04   3.4036666e-04   3.1587773e-04   1.8867553e-04   4.0198908e-04   2.3017239e-04   2.0168906e-04   1.5425522e-04   1.0377936e-04   9.2204133e-05   4.9847849e-04   4.4315094e-04   1.8803459e-04   1.9980221e-04   1.3818001e-04   1.7996055e-04   8.8493354e-05   9.3302736e-05  -1.7123148e-05   9.2742305e-05   2.3951996e-04   1.6145920e-04   7.0093468e-05  -6.2396699e-05  -1.9038097e-04   2.8603964e-05   9.2718679e-05   1.0701142e-04   1.0914054e-04   1.1031165e-04  -5.5063556e-05  -6.3829983e-05  -6.6157090e-06   1.4016285e-04   1.0026842e-04   1.3159215e-04   2.2514567e-04   2.7748281e-04   7.3167781e-05   1.4244406e-04   2.7641449e-05  -8.3077013e-06   1.4391069e-04   1.3944229e-04   6.3375387e-05   5.6093700e-06  -3.8349884e-05  -1.0738845e-04   2.3031546e-04   1.8109245e-04   7.4069138e-05   3.7007523e-05   2.3419153e-05  -5.9189295e-05   7.9369238e-06  -3.3507450e-05  -1.6124000e-04   4.0700074e-04   1.6308644e-04   1.0307048e-04  -2.1105468e-05   3.8156779e-04  -1.7829713e-05   1.7343459e-04   2.5333780e-04   5.3146450e-05  -4.4992023e-05   2.5281823e-04   9.4540895e-05  -1.2321411e-04  -2.5054855e-05   1.4588866e-04  -1.1579976e-04  -1.7731534e-04  -2.9170645e-04  -3.2342674e-04   1.1252310e-05  -7.1296992e-05   6.7951012e-05   1.4201213e-04  -3.6322615e-04  -7.9618321e-05  -3.3318449e-05  -3.4067835e-05  -2.8221148e-04   1.1020732e-04  -3.0078963e-04  -1.5629296e-04  -1.1092329e-04  -3.9752005e-05  -5.8779817e-05   3.6378503e-05   6.2022271e-05   1.8443070e-04   3.1644813e-04  -6.9439981e-06   4.0088001e-04   1.1597905e-04   1.0980675e-04   2.5499669e-04   4.2534383e-04   7.3607245e-05   8.6556314e-05   2.6339904e-04   1.5612214e-04  -1.4908068e-04   8.8624489e-05   1.6627948e-04   3.1717381e-04   5.0735244e-04   2.7942811e-04   2.5012902e-04   5.2548117e-04   4.8736789e-04   1.6780034e-04   2.4021189e-04   1.5078983e-04   8.1958382e-05   2.1360306e-04   9.6930515e-05   1.1953954e-04   7.0069462e-06  -5.4613187e-05   1.7137036e-04   3.5873388e-04   3.1147220e-04   2.6244378e-04   2.4362727e-04   7.3953285e-05   1.5536011e-04   6.2603050e-06   2.2244315e-04   2.5218355e-04   1.7093594e-04   2.7604168e-04   1.6072978e-04  -3.2693694e-05  -9.8034864e-05  -2.9969180e-04  -1.0593429e-04   6.5585447e-05   1.0015786e-04  -6.8781898e-05  -2.8165984e-06  -1.2725028e-04  -2.2222474e-04  -1.5181133e-04   4.4283777e-05  -1.2570275e-04  -2.1786714e-04   9.1920671e-05   2.1868405e-04   1.4314757e-04   7.0197122e-05   9.0364062e-05  -3.0051241e-05   5.3099277e-05  -1.8827322e-04  -3.7941419e-05  -8.6511801e-05  -3.3518610e-04  -2.6116152e-04   9.4206785e-05  -9.9805847e-05  -8.6238706e-05  -1.1722569e-04  -2.7897466e-04  -6.9031145e-04  -3.0254812e-04  -2.0100584e-04  -1.3310229e-04  -2.1885347e-04  -1.3419132e-04  -7.9527743e-05  -1.2647462e-04  -1.3489428e-04   4.3127222e-05   5.8895382e-06  -2.2498945e-04  -1.5886803e-04  -2.6339396e-04  -2.5358865e-04  -6.3080702e-05   7.6603817e-05   4.4525057e-04   1.6828314e-04  -1.1407426e-04  -7.7698197e-05  -2.4976178e-06  -4.9061795e-05  -5.5002451e-05  -5.0580517e-05  -5.8290275e-05  -3.4161559e-06   9.5602513e-05   2.2232446e-05  -1.2128942e-05   1.9618874e-04   8.8217292e-05   2.5252647e-04   4.7578719e-05  -1.4573554e-05   8.3574576e-05   2.8951794e-04   2.3616391e-05   2.5633007e-04   5.4925408e-05   5.4962964e-05  -2.7397823e-05   2.5639128e-04   3.9983549e-04   2.3061316e-04   1.4765888e-04   7.2720542e-05  -4.4497984e-05   1.7355150e-04   2.6244420e-04   1.0427886e-04   2.5238215e-04   1.6221364e-04   5.8850432e-05   1.3936794e-04   2.3579158e-04   1.0460880e-04   4.1430449e-05   1.1160320e-04   1.0250772e-04   1.2272945e-04   5.8672003e-05   1.3428447e-04   1.3163358e-05   9.9421719e-05  -6.4909607e-05   3.9051417e-05   1.5794325e-04   1.4259911e-04   1.6962506e-05   3.6321818e-04   2.5008037e-05   1.3931555e-05   1.8687456e-05   2.0585386e-04   1.4140658e-04   2.2458722e-04   8.3617493e-05   7.9926366e-04   8.3862302e-04   8.7030959e-04   4.3395143e-04   1.2976311e-04   6.1562358e-04  -4.7603106e-04  -2.7339479e-04   2.2906866e-04   4.2181081e-04   7.2911915e-04   1.0307947e-03   1.1298018e-04  -9.4913491e-05  -2.0904149e-04  -6.3499609e-04   2.5002239e-04   7.1871257e-04   7.6414170e-04   6.7374377e-04   9.4815403e-04   2.5169875e-04   3.4237403e-04   8.2117642e-04   5.0021029e-04   9.7827654e-05  -4.4295395e-04   4.8670920e-04   7.9087488e-04   4.0327449e-04   3.1199185e-04   3.7380722e-04   2.9327435e-04   6.6626477e-04   8.3463929e-04  -5.4816845e-04   1.4976310e-03   1.5747075e-03
   4.8714661e-05  -4.1824166e-05  -8.9610462e-05  -4.0416012e-05   3.4910705e-05   7.8507731e-05   1.8895811e-04   1.8570839e-04   3.3022970e-07   7.5116961e-05   8.4578517e-05   1.3401809e-04   1.8856600e-04   1.2430927e-04   1.6020458e-04   6.1982247e-05   8.2092736e-05   7.2234450e-05   1.0940951e-04   1.5007740e-05   5.2271276e-05   1.2612085e-05   2.8431593e-05  -1.0368302e-04  -2.6213973e-05   2.2722505e-05   4.2878427e-05   5.2549346e-05   2.0227172e-05   1.2945501e-04   1.1974954e-04   3.9947923e-05   1.9791841e-05   3.7064465e-05   9.1167151e-05   1.2990394e-04  -7.1611024e-05  -4.0908023e-05   5.1689147e-05   1.2241496e-04  -2.5535345e-05   1.3549003e-04   1.3382144e-04   1.2541372e-04   1.3460922e-04   1.6082611e-04   2.3416558e-05   1.2808732e-04   7.0618483e-05   1.3229629e-04  -5.4431471e-05   7.6000142e-05   1.2468218e-04   2.5877587e-04   2.1640254e-04  -1.3708499e-05   8.4723762e-05   1.7399072e-04   1.0048885e-04   9.0675404e-05   7.7721190e-05   2.1646002e-05   4.2588939e-05   1.2978329e-04   1.4357468e-04   2.7280142e-05   1.0901971e-04  -2.3865147e-05  -9.4963007e-06   8.6260553e-05   1.1313621e-04   1.4633565e-04   3.5175770e-04   3.4199488e-04  -1.2689243e-04  -2.3730907e-04   6.1035273e-04   7.1734997e-04  -7.5327183e-04  -2.5196345e-04  -1.5856869e-04  -2.8743635e-04  -4.0501768e-04  -1.0437038e-03  -4.0194807e-04  -7.1151568e-04   1.9198917e-04   1.4491604e-06   5.1998269e-04   4.5546549e-05  -6.2532244e-04  -8.5913682e-04   8.6621900e-05   7.0703492e-04   5.0351278e-04   4.7173789e-04   7.5587709e-04   2.0793702e-05   1.9704700e-04  -1.7722197e-04  -2.3583361e-04   3.2969245e-04   3.3214722e-04   8.4951348e-05  -2.9169284e-04  -4.2829042e-04  -5.8299018e-04   6.3439450e-04  -6.9697922e-05  -6.1343186e-05  -7.2405941e-04  -9.3898746e-04  -5.8739682e-04  -8.2089269e-05   8.1263634e-05   8.9818374e-05   1.9289461e-04   2.9606430e-04   1.5169040e-04   7.1153631e-05   1.3393067e-04   1.1601788e-04   1.0951940e-04   1.6033479e-04   1.0189777e-04   6.8652555e-05   1.2944508e-04   7.8109829e-05   1.1345691e-05   1.1645388e-04   1.3515791e-04   5.1111219e-05   4.5287989e-05   1.1518729e-05  -4.0877465e-06   4.5216410e-05   2.8553714e-05   7.7963072e-05   4.5702958e-05  -3.4747386e-05   2.7595273e-05   8.2543941e-05  -9.0309277e-07   1.8505693e-05   8.4092221e-05   2.0559348e-05   5.9215075e-05   2.1162103e-05   8.0287651e-05   3.1905108e-05   6.8670555e-06   6.9844005e-05   2.5945011e-04   3.2342464e-04   3.0148548e-04   4.5918974e-04   3.3970929e-04   2.5377940e-04  -3.9735872e-06  -6.8661851e-05   1.3505728e-04   1.3808330e-04   2.9208370e-04   2.6732219e-04   5.5911604e-05   6.8137166e-05   5.0029629e-06   1.4167584e-04   2.5322414e-04   3.0740830e-04   3.4996805e-04   5.4989469e-04   6.0024333e-04   2.1340552e-04   3.2059981e-04   3.0373674e-04   1.7307937e-04   3.9099471e-04   2.1824242e-04   1.7902880e-04   1.3698447e-04   8.7862633e-05   6.3910215e-05   4.8207157e-04   4.2114254e-04   1.6889820e-04   1.6509419e-04   1.1825715e-04   1.5692106e-04   7.0128490e-05   9.4888299e-05  -1.3871838e-05   9.3046473e-05   2.3252694e-04   1.6002472e-04   7.4160367e-05  -8.4750076e-05  -2.1410131e-04   2.3905831e-05   8.8620272e-05   1.0520196e-04   1.1224410e-04   1.0382421e-04  -6.2832555e-05  -7.2950179e-05  -2.4450032e-05   1.2767180e-04   1.0124311e-04   1.3352209e-04   2.3534585e-04   2.8636119e-04   7.7460261e-05   1.4821565e-04   3.4934620e-05  -5.2482322e-06   1.4732623e-04   1.3465864e-04   6.1743270e-05   7.7191524e-06  -3.6530477e-05  -1.1129340e-04   2.3277627e-04   1.8608662e-04   7.6301056e-05   3.8211083e-05   2.2545683e-05  -4.9711953e-05   1.5694735e-05  -4.1629511e-05  -1.6734839e-04   4.1812618e-04   1.6556698e-04   1.0174604e-04  -2.6359937e-05   3.6342073e-04  -2.8604115e-05   1.7665570e-04   2.4190516e-04   3.8106680e-05  -5.8889177e-05   2.3590578e-04   7.3692351e-05  -1.3178842e-04  -1.7980057e-05   1.3848633e-04  -1.1913340e-04  -1.7571703e-04  -2.8930467e-04  -3.2749324e-04   2.7775032e-06  -7.7172312e-05   6.2987489e-05   1.3976356e-04  -3.5533178e-04  -7.7261525e-05  -3.8297020e-05  -4.0345795e-05  -3.0028511e-04   9.1801568e-05  -2.9956860e-04  -1.5913646e-04  -1.1545998e-04  -4.7764563e-05  -6.4896639e-05   1.8645039e-05   5.0013806e-05   1.7535547e-04   3.0472468e-04  -2.3153779e-05   3.8247536e-04   1.0245949e-04   1.0276753e-04   2.7129740e-04   4.5064384e-04   6.3620357e-05   8.2689983e-05   2.4683214e-04   1.3647136e-04  -1.7183681e-04   8.4819192e-05   1.7149851e-04   3.2826557e-04   4.9138444e-04   2.4113911e-04   2.1016540e-04   4.7346486e-04   4.3610712e-04   1.5020447e-04   2.1471630e-04   1.4221578e-04   8.2087246e-05   1.8276190e-04   8.4035769e-05   1.1081959e-04   4.7399421e-06  -7.4267366e-05   1.8368759e-04   3.2024041e-04   2.9043657e-04   2.4647426e-04   2.2842701e-04   6.0545064e-05   1.2324078e-04  -1.0618512e-05   2.1506364e-04   2.5766423e-04   1.9168521e-04   2.9385606e-04   1.5650705e-04  -2.5673341e-05  -9.7618897e-05  -2.8106591e-04  -1.1033549e-04   6.7697516e-05   9.5395947e-05  -6.8553899e-05  -2.8046149e-07  -1.2621997e-04  -2.3473297e-04  -1.6913999e-04   4.3507680e-05  -1.3511382e-04  -2.2574956e-04   8.0591816e-05   1.9699957e-04   1.4585308e-04   6.4180014e-05   1.0986320e-04  -3.2585706e-05   3.8656214e-05  -2.2076695e-04  -4.3660700e-05  -8.8026372e-05  -3.5052503e-04  -2.6981139e-04   6.2292783e-05  -1.2567048e-04  -9.5581727e-05  -1.1129799e-04  -2.7255319e-04  -6.9953440e-04  -3.0660769e-04  -2.3170866e-04  -1.4066762e-04  -2.6217716e-04  -1.8882456e-04  -1.1896076e-04  -1.4983470e-04  -1.6577885e-04   1.6861242e-05  -7.8046188e-06  -2.5449530e-04  -1.8500803e-04  -2.9601914e-04  -2.9524130e-04  -9.2031053e-05   5.0657086e-05   4.1871144e-04   1.3917594e-04  -1.4263044e-04  -1.0910488e-04  -2.3283394e-05  -8.1307399e-05  -7.1342294e-05  -7.8363692e-05  -8.5097179e-05  -3.0369175e-05   8.1618581e-05   2.5346109e-06  -4.0925262e-05   1.5655056e-04   5.0915477e-05   2.3604979e-04   2.1468628e-05  -4.2140701e-05   6.5149946e-05   2.5296449e-04   4.4727250e-06   1.9262801e-04   1.5709988e-05   7.2305238e-05  -8.4180727e-06   2.3798783e-04   3.9307351e-04   2.1925198e-04   1.5406781e-04   7.2253616e-05  -4.2920915e-05   1.5535587e-04   2.6276791e-04   1.1495945e-04   2.5205293e-04   1.4267455e-04   5.2589146e-05   1.2781912e-04   2.1377086e-04   1.1493038e-04   5.1268475e-05   1.3228916e-04   1.1747435e-04   1.4445901e-04   5.3987557e-05   1.3377775e-04   1.3452635e-05   1.0090037e-04  -5.3604861e-05   3.8310737e-05   1.6035081e-04   1.4198113e-04   2.3887469e-05   3.7486825e-04   4.0894149e-05   1.7939143e-05   1.9779810e-05   2.0194864e-04   1.3233861e-04   2.3535538e-04   8.2894257e-05   7.7502651e-04   8.0301734e-04   8.5041452e-04   3.9510893e-04   1.0693754e-04   5.5585302e-04  -5.0184065e-04  -2.8259608e-04   2.1489402e-04   3.6567111e-04   6.3479597e-04   9.5130385e-04   9.7124025e-05  -3.5355202e-05  -2.1069890e-04  -6.6478578e-04   1.4551244e-04   6.4002318e-04   6.6372384e-04   6.1339363e-04   8.8939296e-04   2.2620759e-04   3.0984792e-04   7.9579056e-04   5.0781307e-04   5.3824105e-05  -4.4659906e-04   4.5788511e-04   7.6233418e-04   4.0413102e-04   3.4630480e-04   3.2985851e-04   2.5963434e-04   6.2408409e-04   7.5260487e-04  -6.2012009e-04   1.5513472e-03   1.5577227e-03
   5.6310570e-05  -3.2078428e-05  -8.2948661e-05  -2.6495896e-05   4.6278849e-05   8.9363046e-05   2.0419176e-04   1.9439752e-04   2.6542267e-06   8.2338730e-05   9.7026543e-05   1.4514623e-04   1.9388779e-04   1.2672504e-04   1.6027854e-04   5.8773889e-05   9.6924416e-05   8.1339487e-05   1.2160602e-04   3.6814340e-05   7.5790982e-05   1.8744718e-05   3.8109000e-05  -9.9974445e-05  -2.1502649e-05   3.0947324e-05   4.3713088e-05   5.4109479e-05   2.2141121e-05   1.2634606e-04   1.2369110e-04   5.2993438e-05   2.9462274e-05   4.2606118e-05   9.7726185e-05   1.3289802e-04  -7.0120676e-05  -3.7787012e-05   4.6005813e-05   1.1539899e-04  -3.8828999e-05   1.4473599e-04   1.3979784e-04   1.2913033e-04   1.5762748e-04   1.7500105e-04   3.2911603e-05   1.3977326e-04   7.1377048e-05   1.3812047e-04  -4.6118519e-05   8.8237386e-05   1.4222267e-04   2.7278308e-04   2.2579128e-04  -2.8371273e-05   7.6198200e-05   1.6588507e-04   8.7988466e-05   9.1608792e-05   7.5214711e-05   1.9146483e-05   4.0317683e-05   1.1228666e-04   1.3880843e-04   2.3235942e-05   1.1479143e-04  -1.0540729e-05  -1.8683286e-06   7.2881241e-05   1.0007190e-04   1.4816303e-04   3.6614590e-04   3.6521269e-04  -1.3983602e-04  -2.4168964e-04   6.7098852e-04   8.0122078e-04  -7.8552225e-04  -2.9658634e-04  -1.6767585e-04  -2.3314060e-04  -3.8689450e-04  -1.0143356e-03  -3.7347001e-04  -6.8924895e-04   2.6367194e-04   9.2855563e-05   5.5464145e-04   9.2283401e-05  -6.4750875e-04  -8.9214637e-04   1.3674091e-04   7.6880027e-04   5.7953539e-04   5.4326771e-04   8.0529025e-04   4.4264202e-05   2.0877596e-04  -1.3673558e-04  -2.4132524e-04   3.3579406e-04   3.1913033e-04   9.6460690e-05  -2.7052466e-04  -4.3006249e-04  -5.8888691e-04   6.4346155e-04  -4.1726193e-05  -3.2874081e-05  -6.8933619e-04  -9.3528522e-04  -5.8301020e-04  -7.2289048e-05   7.7385820e-05   9.3694330e-05   1.9043897e-04   2.8594641e-04   1.4269406e-04   6.5773668e-05   1.2558566e-04   1.1085446e-04   1.0296035e-04   1.5207824e-04   9.3264471e-05   6.2340165e-05   1.2383174e-04   7.5466161e-05   1.2278710e-05   9.7916614e-05   1.1264025e-04   4.2955582e-05   3.5871498e-05   3.7327995e-06  -1.6039742e-05   4.4035640e-05   1.9866745e-05   8.0987091e-05   4.8828600e-05  -4.2791933e-05   1.6660298e-05   7.9479240e-05   1.5261760e-06   3.1629101e-05   8.2427616e-05   9.1684603e-06   4.8221100e-05   1.5943939e-05   7.3698699e-05   2.8202638e-05   1.3933734e-05   7.5667658e-05   2.3451169e-04   3.0664069e-04   2.7616307e-04   4.2251215e-04   3.1140701e-04   2.2279309e-04  -2.3689535e-05  -8.9404326e-05   1.1379280e-04   1.1095556e-04   2.5143773e-04   2.2111490e-04   2.9640524e-05   4.6100846e-05  -8.9619478e-06   1.3210980e-04   2.1820878e-04   2.6160598e-04   2.9437533e-04   5.1744659e-04   5.6344481e-04   1.9338234e-04   2.9861903e-04   2.9106074e-04   1.5722148e-04   3.7750148e-04   2.0466406e-04   1.5564468e-04   1.1955664e-04   7.3182764e-05   3.8573358e-05   4.6135803e-04   3.9539876e-04   1.4786500e-04   1.3028325e-04   9.9909472e-05   1.3359763e-04   5.2245095e-05   9.5271723e-05  -1.1672749e-05   9.0516373e-05   2.2155411e-04   1.5706925e-04   7.6757016e-05  -1.1168937e-04  -2.4356325e-04   1.6746596e-05   8.1215551e-05   9.9911624e-05   1.1325745e-04   9.6278372e-05  -7.2188432e-05  -8.4512214e-05  -4.4134998e-05   1.1089336e-04   1.0076609e-04   1.3401737e-04   2.4366250e-04   2.9283659e-04   8.0254502e-05   1.5292040e-04   4.1310124e-05  -3.8989227e-06   1.4980995e-04   1.3087792e-04   5.8895813e-05   8.2568435e-06  -3.6618649e-05  -1.1709935e-04   2.3422776e-04   1.9069848e-04   7.8313344e-05   3.8553096e-05   1.9767393e-05  -4.1871809e-05   2.2199226e-05  -4.9864132e-05  -1.7207754e-04   4.2728343e-04   1.6679839e-04   9.8483726e-05  -3.2243862e-05   3.4900687e-04  -3.5016001e-05   1.7752294e-04   2.3039450e-04   2.4051927e-05  -7.2217963e-05   2.1845188e-04   5.3069248e-05  -1.3800686e-04  -1.1999634e-05   1.3052097e-04  -1.2173143e-04  -1.7325704e-04  -2.8515344e-04  -3.2964925e-04  -6.4150213e-06  -8.3203108e-05   5.5815054e-05   1.3750141e-04  -3.4539619e-04  -7.3244758e-05  -4.3300395e-05  -4.7596639e-05  -3.1633664e-04   7.5768518e-05  -2.9654126e-04  -1.6071598e-04  -1.1828462e-04  -5.5583824e-05  -6.9794791e-05   1.1910777e-06   3.7769793e-05   1.6158313e-04   2.8647220e-04  -4.1439306e-05   3.5920596e-04   8.5614605e-05   9.1115356e-05   2.8287345e-04   4.6720097e-04   5.0349015e-05   7.5280597e-05   2.2417280e-04   1.1153852e-04  -1.9207374e-04   7.7444842e-05   1.7280130e-04   3.2893639e-04   4.6854515e-04   1.9791236e-04   1.6405841e-04   4.1055964e-04   3.7368822e-04   1.2848134e-04   1.8270072e-04   1.2949283e-04   7.7361029e-05   1.4354733e-04   6.8104176e-05   9.7360484e-05  -1.7549978e-06  -9.6327889e-05   1.8885461e-04   2.7269777e-04   2.6120357e-04   2.2544337e-04   2.0576451e-04   4.2660165e-05   9.0359324e-05  -2.7557164e-05   2.0921321e-04   2.6067403e-04   2.0020687e-04   3.0733464e-04   1.5056580e-04  -2.0463289e-05  -1.0049925e-04  -2.7096513e-04  -1.1927540e-04   6.3716287e-05   8.6697162e-05  -6.9608826e-05   2.2329453e-06  -1.3147531e-04  -2.4631084e-04  -1.8891581e-04   3.8430706e-05  -1.4236767e-04  -2.2982942e-04   7.2728834e-05   1.7591002e-04   1.4442607e-04   5.6959099e-05   1.2466540e-04  -3.8520163e-05   2.7014471e-05  -2.4312585e-04  -4.9488436e-05  -9.5053564e-05  -3.6740596e-04  -2.8264011e-04   3.7040736e-05  -1.4544379e-04  -1.0456969e-04  -1.1082346e-04  -2.7129227e-04  -7.1460397e-04  -3.1318738e-04  -2.5952719e-04  -1.4553956e-04  -3.0631006e-04  -2.4071331e-04  -1.5554869e-04  -1.7187917e-04  -1.9596760e-04  -1.3582823e-05  -2.2220778e-05  -2.8280452e-04  -2.0944722e-04  -3.2452769e-04  -3.3230354e-04  -1.1997278e-04   2.4183593e-05   3.8699722e-04   1.0893852e-04  -1.6857289e-04  -1.3764836e-04  -4.0738233e-05  -1.0938959e-04  -8.4000114e-05  -1.0190447e-04  -1.0866437e-04  -5.6049530e-05   6.6126493e-05  -1.5710787e-05  -6.6702594e-05   1.1840475e-04   1.5845637e-05   2.1705625e-04  -3.6054502e-06  -6.7599420e-05   4.9441808e-05   2.1901527e-04  -9.0540587e-06   1.2825291e-04  -2.4713987e-05   8.6794042e-05   1.0410767e-05   2.2053322e-04   3.7109201e-04   1.9909752e-04   1.5497326e-04   7.0664424e-05  -4.0619950e-05   1.3138809e-04   2.5967924e-04   1.2067372e-04   2.4390106e-04   1.2224074e-04   4.3884273e-05   1.1138967e-04   1.8232878e-04   1.1812926e-04   5.4598298e-05   1.4323806e-04   1.2220246e-04   1.5760938e-04   4.6296508e-05   1.2756241e-04   1.3170197e-05   1.0161882e-04  -5.3183009e-05   2.3466716e-05   1.5654316e-04   1.4161401e-04   2.9881291e-05   3.8438269e-04   4.3778193e-05   8.6544193e-06   1.6861380e-05   1.9732379e-04   1.2143267e-04   2.4448416e-04   8.4405006e-05   7.3995223e-04   7.5564594e-04   8.0891737e-04   3.4513915e-04   7.9160412e-05   4.8640661e-04  -5.1409802e-04  -2.7517518e-04   1.9516506e-04   3.0238715e-04   5.3448812e-04   8.5839874e-04   8.4530994e-05   3.4195521e-05  -2.0771703e-04  -6.8006337e-04   4.6834244e-05   5.5370205e-04   5.5562067e-04   5.3671684e-04   8.1012401e-04   1.9675398e-04   2.6859605e-04   7.5799262e-04   5.0449797e-04   4.0905452e-06  -4.4815982e-04   4.1979632e-04   7.2380322e-04   4.0447645e-04   3.7416683e-04   2.7387542e-04   2.1709207e-04   5.7659958e-04   6.6882141e-04  -6.7183872e-04   1.5851012e-03   1.5165806e-03
