  -2.3009399e-04  -1.6843892e-04  -1.0640198e-04  -1.6801175e-04  -1.1388189e-04  -9.3070299e-05  -1.5363210e-04  -9.7614271e-05  -1.1300109e-04  -1.6570594e-04  -1.4267984e-04  -1.7513656e-04   6.4113575e-05   1.2427739e-05  -1.4588559e-04  -1.7171808e-04  -1.4875844e-04  -1.0323249e-04  -1.4386672e-04  -2.3343014e-04  -1.7262151e-04  -1.7989812e-04  -1.6128574e-04  -1.9047715e-04  -1.2526103e-04  -2.4656332e-04  -1.0713998e-04  -1.2349241e-04  -5.0705016e-05  -1.7472649e-05   5.5202588e-05  -5.1359194e-05  -1.7795226e-04  -1.3554514e-04  -1.0454637e-04  -4.0034426e-05  -3.3425048e-06   0.0000000e+00  -3.8389846e-05  -4.8201027e-05  -1.7938178e-05  -1.5199218e-05  -3.2042358e-06   3.7173202e-06   2.2670610e-05   1.3277264e-05  -1.5056149e-05  -1.8358114e-05  -3.9794066e-06  -6.2970169e-06   1.3697238e-04   1.5346598e-04  -5.2662206e-08  -2.6068949e-05  -4.3760750e-06  -3.7555754e-06  -9.5343641e-06  -1.5586234e-05  -1.0312935e-05  -1.0890915e-04  -5.9416301e-05  -8.6987877e-05   4.0820683e-05  -8.0982216e-05  -3.2610355e-05  -3.8498317e-05   1.1974004e-04   1.5454796e-04   1.2681342e-04   1.6940843e-06  -4.4320015e-05  -1.9203701e-05   3.5610005e-05   1.1183018e-04  -3.3781009e-05   0.0000000e+00   8.7431028e-04   4.6339469e-04   3.1199348e-04   5.3071079e-04   4.6244036e-04   2.0418897e-04   1.9603771e-04   2.1245482e-04   2.4539530e-04   3.1674994e-04   3.3761146e-04   3.6394482e-04  -6.0011618e-05   3.1340166e-05   2.3501019e-04   3.7155816e-04   3.1350734e-04   3.3181709e-04   4.1000745e-04   6.5223704e-04   4.9663513e-04   4.2223228e-04   2.5838722e-04   6.3791494e-04   2.5434778e-04   4.9729635e-04   3.4758855e-04   1.9602327e-04   2.6220385e-05  -1.2973014e-04  -1.1895666e-03   3.8515065e-04   5.5554352e-04   1.9068831e-04   1.4827459e-04  -8.4490338e-05  -6.0628058e-04   0.0000000e+00   2.3669509e-05   3.9605318e-05   1.9807426e-05   3.6752898e-05   1.9256483e-05   4.9089363e-05  -7.3554682e-05  -4.1168054e-06   2.8073833e-05   1.4493266e-05   3.1365767e-05   3.8313074e-05  -1.2770800e-04  -7.4201466e-05   3.1995393e-06   2.2244085e-05   5.1369900e-06   2.4885204e-05   5.0121396e-05   3.2257361e-05   5.2648568e-05  -1.4270339e-05   2.0212472e-05  -2.5262523e-06  -8.2577026e-05   1.8213391e-05   5.3215812e-05  -9.1735670e-06  -7.4518577e-05  -5.5893787e-05  -2.0055464e-04   8.2730090e-05   7.6127528e-05   4.3568503e-06  -3.9650458e-05  -8.7717196e-06  -1.3364308e-04   0.0000000e+00  -3.4117254e-05   1.2740002e-05   7.7565605e-06   2.0738590e-05  -5.4310590e-05  -2.9083318e-05  -1.3715596e-04  -5.7857082e-05  -2.9786354e-05  -6.3106306e-05  -4.7937080e-05  -5.7516395e-05   2.5787493e-04   1.6984611e-04  -6.2565244e-05  -5.3037126e-05  -8.7687808e-05  -5.5322410e-05  -5.2839349e-05  -1.1715733e-04  -2.1775335e-05  -7.9767115e-06  -5.4880532e-05  -1.6016605e-05  -3.9461723e-05  -9.7466138e-05   3.5877424e-05  -4.9300262e-05   4.4313027e-05   1.0252523e-04  -4.3671520e-06   6.8287965e-05   3.6270037e-06  -6.1737992e-05  -4.8974173e-05   1.2146457e-04   3.4856391e-05   0.0000000e+00  -1.7902809e-04  -8.8115845e-05  -5.2916008e-05  -1.0578727e-04  -1.0523762e-04  -6.5483227e-05  -9.5135126e-05  -5.7716987e-05  -5.6552186e-05  -1.2849136e-04  -9.5770107e-05  -1.1255466e-04   5.8395111e-06   1.6548183e-05  -6.9174856e-05  -9.1702704e-05  -9.0151793e-05  -7.5607441e-05  -7.1547672e-05  -1.2807099e-04  -5.2464960e-05  -1.0186835e-04  -8.7835500e-05  -8.4218528e-05  -4.7619684e-05  -1.1544898e-04   2.2749296e-05  -4.2725820e-05  -2.1187110e-05  -2.4504021e-05  -3.9409514e-05   6.8263801e-05  -2.2360977e-05  -5.9696322e-05  -5.8006530e-05  -4.5692160e-05  -1.8780509e-04   0.0000000e+00   4.5459261e-04   2.0886025e-04   1.0853905e-04   2.6501787e-04   1.6747135e-04   5.6398803e-05   1.2048687e-04   8.8836959e-05   8.0230424e-05   1.7440713e-04   7.3746642e-05   7.9683826e-05   8.7447455e-05   1.8398160e-04   1.3869750e-04   1.0975476e-04   7.8143583e-05   1.4935205e-05  -7.3328119e-06   4.1334965e-05   2.4037728e-05   1.8221878e-04   7.0682619e-05   1.6357186e-04   1.1217925e-04   7.6111748e-05  -4.3186922e-05   7.3249459e-05   1.7434674e-04   4.7061386e-05   3.1019833e-04  -1.9656493e-04  -7.6097444e-05   1.0648538e-04   1.9069344e-04   1.7597313e-04   4.6778648e-04   0.0000000e+00  -6.3517388e-05  -8.7879147e-05  -4.1671360e-05  -3.8833828e-05  -4.4125209e-05  -5.6209304e-05  -2.9390405e-05  -5.7681203e-06  -5.7737410e-05  -2.9040704e-05  -6.3382320e-05  -7.0148442e-05   2.1190737e-04   4.7961681e-05  -4.9651595e-05  -5.7815082e-05  -6.9714587e-05  -1.0131942e-04  -1.1109190e-04  -9.9666281e-05  -1.4341231e-04  -1.4976781e-06  -2.1547078e-05  -1.9125370e-05  -2.0174216e-05  -1.0615802e-04  -3.6013984e-05  -6.1663139e-05   1.8202261e-05  -4.5573486e-05   5.0378422e-05  -9.4788212e-05  -7.7321535e-05  -8.9342937e-05  -5.6249065e-05   1.4647236e-04   2.2309402e-04   0.0000000e+00   2.3157906e-04  -1.5536557e-05   1.0096156e-04   1.5778696e-04   8.2039439e-05   1.3748792e-06   2.3894399e-04   1.3858790e-04   9.7394910e-05   2.2236285e-04   1.2117014e-04   1.6544581e-04   7.7157305e-04   3.1839379e-04   1.5207816e-04   1.7976196e-04   1.0816939e-04   3.5336675e-05   6.4742266e-05   2.2682847e-04   6.3604775e-05   4.5778169e-05  -4.3929928e-06  -8.9998192e-05   7.4842086e-05   3.2560580e-05  -7.9851335e-05  -7.4388575e-06   1.9855332e-04   1.8131830e-04   1.0063236e-04  -1.2200636e-04  -1.0439729e-04   5.2196046e-05   1.3679940e-04   1.5440014e-04   8.5421338e-05   0.0000000e+00   3.1225705e-04   1.0844170e-04   1.9852404e-05   1.4193888e-04   5.4887861e-05   1.4318917e-04  -1.7503489e-04  -6.5629671e-05   8.5940665e-06   4.8972797e-05   5.3870270e-05   1.3054267e-04  -3.8436762e-04  -1.8772462e-04   4.8958075e-06   6.8691109e-05   6.1543530e-05   1.0059645e-04   1.0845767e-04   1.1814243e-04   1.0634732e-04  -6.7354194e-05   3.7193022e-05  -1.3747552e-04  -2.4838698e-04   5.8832666e-05   3.7947607e-05  -2.3731916e-05  -2.1810300e-04  -1.7224802e-04  -1.7901038e-04   9.9409304e-05   1.2141920e-04   1.5965557e-05  -1.2263087e-04  -1.8383850e-04   1.3071772e-05   0.0000000e+00  -2.4702227e-04  -2.0075990e-04  -1.3800582e-04  -2.0338272e-04  -1.5270956e-04  -8.0444585e-05  -2.3944026e-04  -1.4127841e-04  -1.6327926e-04  -2.0661711e-04  -1.6329891e-04  -1.4369751e-04   3.2354598e-05   4.8245148e-05  -1.5419279e-04  -2.0396421e-04  -1.5165937e-04  -8.2803906e-05  -8.7128958e-05  -1.2621224e-04  -9.8584269e-05  -1.7068543e-04  -1.0310093e-04  -1.7169683e-04  -1.1296035e-04  -1.3901902e-04  -7.1549362e-05  -1.2737155e-04  -2.9866860e-05  -8.1256232e-07   5.3928403e-06  -1.8743952e-05  -1.3369417e-04  -1.0605809e-04  -1.1887622e-04  -7.1470137e-05  -1.2975271e-04   0.0000000e+00  -1.2037037e-04  -5.7553722e-05   2.8996253e-05  -4.7534199e-05  -6.7431773e-05  -4.2544078e-05  -9.2976615e-05  -8.7535276e-06   1.8690721e-05  -1.1023239e-05   8.0432190e-06  -3.3292358e-05   1.0682784e-04   8.1119585e-05  -4.6115298e-06  -4.3256969e-06   1.1768966e-05  -4.2575141e-06  -2.6971898e-05  -1.0368120e-04  -3.6616356e-05  -6.0844380e-05  -1.1071830e-05  -3.9765373e-05   5.7058996e-05   4.0492400e-05  -3.3194244e-05   2.5007193e-05   7.6063147e-05   1.0590360e-04  -7.6602518e-05  -9.6442214e-05  -6.6336187e-05   2.7174853e-05   7.3655345e-05   1.3103093e-04  -4.0786611e-06   0.0000000e+00
  -2.8642615e-04  -2.0260870e-04  -1.2721888e-04  -2.0474938e-04  -1.4624916e-04  -1.1616450e-04  -1.8506183e-04  -1.1890618e-04  -1.3540685e-04  -2.0328375e-04  -1.7561272e-04  -2.1482250e-04   7.2129170e-05   1.7501129e-05  -1.7239708e-04  -2.0687302e-04  -1.8130434e-04  -1.3105891e-04  -1.7697235e-04  -2.8593068e-04  -2.0587141e-04  -2.1076803e-04  -1.9465805e-04  -2.2106388e-04  -1.4442408e-04  -2.9385996e-04  -1.2258384e-04  -1.4462092e-04  -5.7767318e-05  -1.9588375e-05   6.6978698e-05  -5.6170366e-05  -2.0685958e-04  -1.5946418e-04  -1.2338445e-04  -4.8213875e-05  -9.0913001e-06   0.0000000e+00  -5.9054739e-05  -6.8464669e-05  -2.8175143e-05  -3.0432304e-05  -1.5850079e-05  -1.1062156e-06   4.9690414e-06   1.5434393e-06  -2.5348343e-05  -2.9736617e-05  -1.4260081e-05  -1.6620579e-05   1.4949560e-04   1.7791377e-04  -1.1136436e-05  -3.8117939e-05  -1.2184020e-05  -1.0751900e-05  -1.9021929e-05  -2.8403972e-05  -2.0670450e-05  -1.2900818e-04  -7.2303222e-05  -1.0165113e-04   5.0001247e-05  -1.0301132e-04  -4.4113191e-05  -4.8431177e-05   1.4042868e-04   1.6909274e-04   1.5554641e-04  -1.0755093e-05  -6.7396778e-05  -3.0898062e-05   3.8351631e-05   1.3720445e-04  -7.8573612e-06   0.0000000e+00   9.5436881e-04   4.9977471e-04   3.3981018e-04   5.7157699e-04   5.0333162e-04   2.2954427e-04   2.1110095e-04   2.3122303e-04   2.5743936e-04   3.3672039e-04   3.6460183e-04   3.9695220e-04  -7.3353513e-05   2.3789352e-05   2.5407961e-04   3.9686015e-04   3.4341144e-04   3.7384349e-04   4.5012540e-04   7.1906991e-04   5.4383706e-04   4.5779833e-04   2.8924228e-04   6.6178567e-04   2.7291745e-04   5.5312778e-04   3.7046582e-04   2.1187930e-04   2.9742444e-05  -1.3676801e-04  -1.2169207e-03   4.0768319e-04   6.0920330e-04   2.1599754e-04   1.6162730e-04  -8.2280761e-05  -5.8481092e-04   0.0000000e+00   1.1067848e-05   3.3354573e-05   1.5863216e-05   3.0598419e-05   1.3136156e-05   4.9974984e-05  -8.5278196e-05  -1.1516658e-05   2.4657769e-05   8.6733190e-06   2.8731642e-05   3.6333599e-05  -1.6337729e-04  -9.5572109e-05   4.4199610e-07   1.9856241e-05   1.8595918e-06   2.2137311e-05   5.0528644e-05   3.0832892e-05   5.0348757e-05  -2.3372986e-05   1.8035654e-05  -9.6203300e-06  -9.8062522e-05   1.5997769e-05   4.8273374e-05  -1.4572142e-05  -9.1150934e-05  -7.5083144e-05  -2.3959567e-04   8.4769091e-05   7.4147918e-05   2.5132773e-06  -4.9779130e-05  -2.3548920e-05  -1.6891310e-04   0.0000000e+00  -5.5997627e-05   2.8386740e-06   3.1730845e-06   1.5599076e-05  -7.1511339e-05  -3.5661434e-05  -1.6211261e-04  -7.4188521e-05  -3.8873402e-05  -7.5569012e-05  -5.7823472e-05  -6.5142382e-05   2.5153852e-04   1.7744300e-04  -7.2542406e-05  -6.5285184e-05  -9.9201604e-05  -6.3423221e-05  -5.9996090e-05  -1.3273460e-04  -2.8846755e-05  -2.0099413e-05  -6.5618892e-05  -3.3394898e-05  -5.3425249e-05  -1.1292951e-04   2.8178406e-05  -6.0116091e-05   4.0350504e-05   1.0492999e-04  -1.6855162e-05   6.6952768e-05  -9.3782439e-06  -6.8608853e-05  -6.1841833e-05   1.2064744e-04   3.1040719e-05   0.0000000e+00  -1.9827390e-04  -9.5889798e-05  -5.6546693e-05  -1.1547828e-04  -1.1615665e-04  -7.1650123e-05  -1.0323448e-04  -6.4873666e-05  -5.9357768e-05  -1.3725699e-04  -1.0281458e-04  -1.2133515e-04   1.6615823e-05   2.6529673e-05  -7.5403654e-05  -9.5937593e-05  -9.6028505e-05  -8.2010143e-05  -7.6786258e-05  -1.3901170e-04  -5.4671753e-05  -1.0805032e-04  -9.4672623e-05  -8.8142650e-05  -4.6907292e-05  -1.2505369e-04   2.9466086e-05  -4.5557082e-05  -1.8125459e-05  -2.3041054e-05  -4.1822618e-05   7.7738642e-05  -2.1645376e-05  -6.5623199e-05  -6.2112114e-05  -4.3591032e-05  -2.0239474e-04   0.0000000e+00   5.2765469e-04   2.4293314e-04   1.2268179e-04   3.0784168e-04   1.9240057e-04   7.0284048e-05   1.4183312e-04   1.0566334e-04   8.8331235e-05   2.0296386e-04   8.9090593e-05   1.0382902e-04   1.0749359e-04   1.9130043e-04   1.5370557e-04   1.1830098e-04   8.4867079e-05   2.4545880e-05   3.0018055e-06   5.8435517e-05   2.9829792e-05   1.9532374e-04   8.9840812e-05   1.7230484e-04   1.2811215e-04   8.9170695e-05  -6.0018576e-05   7.9571951e-05   1.8266782e-04   4.4498648e-05   2.9335044e-04  -2.3574409e-04  -9.7279211e-05   1.2331480e-04   2.1724383e-04   1.9376701e-04   4.5536406e-04   0.0000000e+00  -5.5024311e-05  -8.2484687e-05  -3.4211663e-05  -3.0732866e-05  -4.3042099e-05  -5.4904392e-05  -2.7027285e-05  -4.0232810e-06  -5.1933369e-05  -2.3668573e-05  -6.1752729e-05  -6.8896567e-05   2.6011493e-04   7.0983239e-05  -5.2157413e-05  -5.1429476e-05  -6.9325939e-05  -1.0419897e-04  -1.1279203e-04  -1.0307354e-04  -1.4176275e-04   1.3950352e-05  -1.4716759e-05  -1.7207799e-06  -7.1042204e-06  -1.0464071e-04  -1.7147532e-05  -5.9510945e-05   3.9310233e-05  -3.4930257e-05   8.6183216e-05  -8.0811124e-05  -5.6652887e-05  -9.2245149e-05  -5.1308798e-05   1.8022444e-04   2.5578634e-04   0.0000000e+00   3.2211668e-04   2.3528321e-05   1.2921540e-04   2.1603363e-04   1.2782941e-04   2.5186971e-05   2.6097733e-04   1.6484512e-04   1.2720974e-04   2.7035143e-04   1.5817380e-04   2.1858261e-04   8.7562414e-04   3.5106789e-04   1.7930816e-04   2.2027262e-04   1.3952585e-04   6.9795014e-05   1.1515668e-04   3.0440945e-04   1.0963554e-04   7.2213819e-05   7.8276183e-06  -6.8624761e-05   8.2209898e-05   5.7510510e-05  -5.3883864e-05   2.6738286e-06   2.0953878e-04   2.0900568e-04   8.7998390e-05  -9.1190376e-05  -5.5030612e-05   7.5586569e-05   1.5896307e-04   1.7795128e-04   1.2557527e-04   0.0000000e+00   3.2657453e-04   9.3203397e-05   3.6116229e-06   1.3221095e-04   4.8444615e-05   1.4551361e-04  -2.0520790e-04  -8.3903130e-05  -8.3378582e-06   4.0962086e-05   4.3326811e-05   1.3379795e-04  -4.2494056e-04  -2.1180016e-04  -6.0748468e-06   5.5527505e-05   5.7132088e-05   1.0109169e-04   1.1160458e-04   1.2350807e-04   9.4289484e-05  -8.9613066e-05   2.7844348e-05  -1.7283592e-04  -2.8266736e-04   4.5781955e-05   1.7518347e-05  -3.6641982e-05  -2.3615685e-04  -1.8857355e-04  -1.9235669e-04   8.7555692e-05   1.0662770e-04   9.6476905e-06  -1.3881082e-04  -1.9944044e-04   6.2624070e-06   0.0000000e+00  -2.7653654e-04  -2.2163305e-04  -1.5741348e-04  -2.2898843e-04  -1.7055694e-04  -9.3499376e-05  -2.7573928e-04  -1.6408345e-04  -1.8323762e-04  -2.3078860e-04  -1.8495514e-04  -1.6362136e-04   3.8626317e-05   4.2607611e-05  -1.7751237e-04  -2.2764541e-04  -1.7317914e-04  -9.7420542e-05  -1.0078416e-04  -1.4114351e-04  -1.1123247e-04  -1.9005113e-04  -1.1425836e-04  -1.8847047e-04  -1.3211933e-04  -1.5586399e-04  -8.7390948e-05  -1.4528630e-04  -4.0574717e-05  -3.3598906e-06  -8.2334186e-07  -2.6921614e-05  -1.5415281e-04  -1.2329227e-04  -1.3970248e-04  -8.4141986e-05  -1.3941347e-04   0.0000000e+00  -1.4315317e-04  -5.7207950e-05   3.5632428e-05  -5.6874593e-05  -7.7725965e-05  -4.8408148e-05  -1.0556881e-04  -7.4191679e-06   2.0963090e-05  -7.4692574e-06   1.3471172e-05  -3.5364020e-05   1.1710780e-04   9.3690219e-05   4.9793137e-07   3.0207775e-07   2.0008888e-05   7.0014153e-07  -2.4647394e-05  -1.1617287e-04  -3.5438910e-05  -5.3365574e-05  -1.7894253e-06  -2.7829920e-05   7.8979714e-05   5.7406142e-05  -3.0810157e-05   3.8000392e-05   9.8678695e-05   1.3333714e-04  -5.5126107e-05  -1.0965955e-04  -7.1538548e-05   4.1324964e-05   9.5369374e-05   1.6620615e-04   2.8729483e-05   0.0000000e+00
  -3.4421332e-04  -2.3637366e-04  -1.4766367e-04  -2.4164113e-04  -1.8002079e-04  -1.3984768e-04  -2.1589338e-04  -1.4015912e-04  -1.5734499e-04  -2.4108347e-04  -2.0888193e-04  -2.5493889e-04   7.8665206e-05   2.2833612e-05  -1.9790948e-04  -2.4163939e-04  -2.1389178e-04  -1.5980208e-04  -2.1051135e-04  -3.3894719e-04  -2.3829835e-04  -2.4018733e-04  -2.2773030e-04  -2.4983941e-04  -1.6208028e-04  -3.4004563e-04  -1.3649093e-04  -1.6466108e-04  -6.4045288e-05  -2.1285189e-05   7.9036982e-05  -5.9717938e-05  -2.3388792e-04  -1.8231054e-04  -1.4136733e-04  -5.6368131e-05  -1.5931542e-05   0.0000000e+00  -8.1295350e-05  -9.0316640e-05  -3.8843929e-05  -4.7425815e-05  -2.9901021e-05  -6.5598796e-06  -1.5873181e-05  -1.2184710e-05  -3.6098206e-05  -4.0470347e-05  -2.4886221e-05  -2.6870644e-05   1.6089622e-04   2.0174428e-04  -2.3133040e-05  -4.9894510e-05  -2.0031613e-05  -1.7547742e-05  -2.9208186e-05  -4.1723172e-05  -3.1527689e-05  -1.4760002e-04  -8.4300381e-05  -1.1541074e-04   6.1004775e-05  -1.2410878e-04  -5.6745661e-05  -5.7424161e-05   1.6046218e-04   1.8145969e-04   1.8648747e-04  -2.6286972e-05  -9.2473948e-05  -4.2616364e-05   4.2130750e-05   1.6312381e-04   2.8698576e-05   0.0000000e+00   1.0122369e-03   5.2435199e-04   3.5964433e-04   5.9849702e-04   5.3355664e-04   2.5119205e-04   2.1637113e-04   2.4237686e-04   2.6162835e-04   3.4694994e-04   3.8296559e-04   4.2143912e-04  -7.9873964e-05   1.5404801e-05   2.6441917e-04   4.0970158e-04   3.6426081e-04   4.0999915e-04   4.8169595e-04   7.7071914e-04   5.7871870e-04   4.8146203e-04   3.1372998e-04   6.6230448e-04   2.8137116e-04   5.9643858e-04   3.8440967e-04   2.2052007e-04   3.2125043e-05  -1.3693104e-04  -1.2119716e-03   4.2032746e-04   6.5178150e-04   2.3693502e-04   1.7056038e-04  -7.4174318e-05  -5.4067100e-04   0.0000000e+00  -2.9209205e-06   2.6167125e-05   1.1646563e-05   2.3254475e-05   6.2032314e-06   4.9820661e-05  -9.3812638e-05  -1.8602655e-05   2.0604542e-05   2.7579642e-06   2.5722780e-05   3.3914802e-05  -2.0234763e-04  -1.1864801e-04  -1.3834708e-06   1.7766210e-05  -8.0662536e-07   1.8730085e-05   5.0062494e-05   2.9570765e-05   4.6952894e-05  -3.1404426e-05   1.5983205e-05  -1.5779039e-05  -1.1156471e-04   1.4777560e-05   4.1462134e-05  -1.8821537e-05  -1.0724710e-04  -9.6325951e-05  -2.7901622e-04   8.4132247e-05   7.0185763e-05   1.7538486e-06  -5.8662516e-05  -4.0661480e-05  -2.0516686e-04   0.0000000e+00  -8.0535156e-05  -8.3339511e-06  -1.6141442e-06   9.1586616e-06  -8.9543682e-05  -4.1881332e-05  -1.8442882e-04  -8.9883438e-05  -4.7658074e-05  -8.6843606e-05  -6.6807985e-05  -7.1210023e-05   2.3478327e-04   1.7825225e-04  -8.0987279e-05  -7.7168913e-05  -1.0906028e-04  -7.0669437e-05  -6.5749256e-05  -1.4582746e-04  -3.5966634e-05  -3.2952912e-05  -7.5660650e-05  -5.1721141e-05  -6.7975531e-05  -1.2645867e-04   1.7793389e-05  -7.0314248e-05   3.2218812e-05   1.0412662e-04  -3.1869698e-05   6.2872122e-05  -2.4183579e-05  -7.3595842e-05  -7.4553357e-05   1.1385394e-04   2.6232293e-05   0.0000000e+00  -2.1403557e-04  -1.0132834e-04  -5.8325365e-05  -1.2241506e-04  -1.2490296e-04  -7.6124159e-05  -1.0830562e-04  -7.0541399e-05  -6.0184556e-05  -1.4245787e-04  -1.0702158e-04  -1.2694838e-04   2.9159093e-05   3.7380649e-05  -7.9457451e-05  -9.6991959e-05  -9.8888216e-05  -8.6347447e-05  -7.9835675e-05  -1.4649820e-04  -5.4769020e-05  -1.1095561e-04  -9.9001388e-05  -8.8695426e-05  -4.3413841e-05  -1.3107416e-04   3.6713966e-05  -4.6744848e-05  -1.3708627e-05  -1.9332340e-05  -4.2662064e-05   8.6373646e-05  -1.9249341e-05  -6.9615639e-05  -6.4143144e-05  -3.9499055e-05  -2.1266673e-04   0.0000000e+00   5.9575015e-04   2.7280643e-04   1.3413672e-04   3.4668759e-04   2.1495462e-04   8.4138694e-05   1.6121349e-04   1.2109619e-04   9.4219349e-05   2.2948487e-04   1.0347757e-04   1.2913408e-04   1.2910042e-04   1.9421045e-04   1.6479155e-04   1.2248125e-04   8.9330879e-05   3.5132543e-05   1.5718848e-05   7.6710223e-05   3.3719204e-05   2.0205343e-04   1.0851875e-04   1.7460028e-04   1.4119430e-04   9.9860350e-05  -8.1374371e-05   8.3045813e-05   1.8576456e-04   3.8667289e-05   2.6489415e-04  -2.7816864e-04  -1.2443925e-04   1.3805489e-04   2.4074073e-04   2.0735083e-04   4.2980807e-04   0.0000000e+00  -3.7209995e-05  -6.9387213e-05  -2.2605898e-05  -1.6901356e-05  -3.7194948e-05  -4.9839030e-05  -2.0339923e-05   6.5673140e-08  -4.1251671e-05  -1.3379359e-05  -5.5415228e-05  -6.2434113e-05   3.0831715e-04   9.4149041e-05  -5.1076423e-05  -3.9445097e-05  -6.4152048e-05  -1.0259701e-04  -1.0880606e-04  -9.9752193e-05  -1.3327976e-04   3.4805298e-05  -3.7689647e-06   2.2039948e-05   9.6513839e-06  -9.5918837e-05   6.2270748e-06  -5.3201924e-05   6.2152304e-05  -1.9695854e-05   1.2379929e-04  -6.1552616e-05  -2.8162941e-05  -9.0831103e-05  -4.2357961e-05   2.1270240e-04   2.8308677e-04   0.0000000e+00   4.2054022e-04   7.1343252e-05   1.5965368e-04   2.7985079e-04   1.7855441e-04   5.3846219e-05   2.7952392e-04   1.9112331e-04   1.5946455e-04   3.1965703e-04   1.9781447e-04   2.7623630e-04   9.6599101e-04   3.7875934e-04   2.0666288e-04   2.6255694e-04   1.7215591e-04   1.0863693e-04   1.7194225e-04   3.8862148e-04   1.6134295e-04   1.0252531e-04   2.3263504e-05  -3.8003908e-05   9.0738863e-05   8.7277779e-05  -2.1087922e-05   1.6032512e-05   2.1866450e-04   2.3616555e-04   7.3097695e-05  -5.3329930e-05   4.3694035e-06   1.0148894e-04   1.8146738e-04   2.0166520e-04   1.7152824e-04   0.0000000e+00   3.3777871e-04   7.5352068e-05  -1.3645246e-05   1.1856335e-04   4.3146990e-05   1.4556431e-04  -2.3227386e-04  -1.0065698e-04  -2.5965728e-05   3.4204445e-05   3.2737251e-05   1.3671701e-04  -4.5518898e-04  -2.3070234e-04  -1.6088212e-05   4.1712266e-05   5.3181141e-05   1.0103219e-04   1.1434464e-04   1.2954388e-04   7.8797777e-05  -1.0908772e-04   1.8444276e-05  -2.0723234e-04  -3.1271322e-04   3.1044066e-05  -5.5633767e-06  -4.8882915e-05  -2.4743372e-04  -1.9730690e-04  -2.0001938e-04   7.1323176e-05   8.8063968e-05   3.6340751e-06  -1.5029605e-04  -2.0440432e-04   5.1637956e-06   0.0000000e+00  -3.0290292e-04  -2.3879124e-04  -1.7473855e-04  -2.5178028e-04  -1.8690641e-04  -1.0587382e-04  -3.0780824e-04  -1.8516743e-04  -2.0111727e-04  -2.5224429e-04  -2.0431431e-04  -1.8150295e-04   4.3272480e-05   3.4447049e-05  -1.9891174e-04  -2.4847002e-04  -1.9265886e-04  -1.1147424e-04  -1.1288089e-04  -1.5340085e-04  -1.2171814e-04  -2.0537413e-04  -1.2334210e-04  -2.0133069e-04  -1.4835884e-04  -1.6952201e-04  -1.0174568e-04  -1.6074983e-04  -5.1754176e-05  -6.7807186e-06  -9.6373818e-06  -3.4584064e-05  -1.7202416e-04  -1.3878316e-04  -1.5939929e-04  -9.6634868e-05  -1.5007870e-04   0.0000000e+00  -1.6840310e-04  -5.7563258e-05   4.1439647e-05  -6.7583762e-05  -8.8731120e-05  -5.4466935e-05  -1.1987968e-04  -7.0355294e-06   2.2117937e-05  -4.3255198e-06   1.8557013e-05  -3.7935772e-05   1.2328889e-04   1.0440902e-04   5.5570757e-06   4.2361589e-06   2.8538093e-05   5.8375178e-06  -2.2160912e-05  -1.2930987e-04  -3.4977949e-05  -4.4969626e-05   8.3642536e-06  -1.6726665e-05   1.0036591e-04   7.4152380e-05  -2.8234567e-05   5.1248078e-05   1.2153584e-04   1.6053993e-04  -2.6509023e-05  -1.2253257e-04  -7.7126440e-05   5.5413004e-05   1.1702672e-04   2.0137836e-04   6.6325276e-05   0.0000000e+00
  -4.0183092e-04  -2.6872086e-04  -1.6710575e-04  -2.7758834e-04  -2.1422628e-04  -1.6342935e-04  -2.4509995e-04  -1.6069810e-04  -1.7813148e-04  -2.7793633e-04  -2.4146679e-04  -2.9430227e-04   8.3353103e-05   2.8155009e-05  -2.2162450e-04  -2.7495040e-04  -2.4553329e-04  -1.8859630e-04  -2.4351390e-04  -3.9096384e-04  -2.6891878e-04  -2.6733460e-04  -2.5953672e-04  -2.7601519e-04  -1.7770980e-04  -3.8376237e-04  -1.4844760e-04  -1.8299799e-04  -6.9388546e-05  -2.2535329e-05   9.1028813e-05  -6.1874000e-05  -2.5823579e-04  -2.0337723e-04  -1.5790709e-04  -6.4323041e-05  -2.3772204e-05   0.0000000e+00  -1.0386616e-04  -1.1274915e-04  -4.9310227e-05  -6.5288136e-05  -4.4392777e-05  -1.2235536e-05  -3.8744905e-05  -2.7120171e-05  -4.6632378e-05  -4.9507692e-05  -3.4983790e-05  -3.6055830e-05   1.7053005e-04   2.2397280e-04  -3.5259025e-05  -6.0551491e-05  -2.7216360e-05  -2.3431269e-05  -3.9454912e-05  -5.4504808e-05  -4.2114591e-05  -1.6392741e-04  -9.4702630e-05  -1.2792688e-04   7.3558499e-05  -1.4298707e-04  -7.0275987e-05  -6.4813546e-05   1.7897013e-04   1.9098624e-04   2.1860140e-04  -4.4596582e-05  -1.1848607e-04  -5.3525371e-05   4.7253879e-05   1.8843484e-04   7.5783920e-05   0.0000000e+00   1.0458404e-03   5.3674359e-04   3.7107719e-04   6.1096385e-04   5.5263532e-04   2.6824646e-04   2.1138928e-04   2.4536090e-04   2.5815067e-04   3.4722513e-04   3.9227553e-04   4.3676878e-04  -7.7644931e-05   7.2453234e-06   2.6540257e-04   4.0964096e-04   3.7527623e-04   4.3899663e-04   5.0395823e-04   8.0518808e-04   5.9999296e-04   4.9248645e-04   3.3064618e-04   6.4029511e-04   2.7919849e-04   6.2531005e-04   3.8941910e-04   2.2148175e-04   3.3285384e-05  -1.3009007e-04  -1.1784286e-03   4.2341904e-04   6.8258034e-04   2.5261493e-04   1.7492100e-04  -6.0427597e-05  -4.7801819e-04   0.0000000e+00  -1.7005790e-05   1.8830066e-05   7.6847570e-06   1.5519378e-05  -8.2177245e-07   4.8988528e-05  -9.8309456e-05  -2.4662296e-05   1.6425138e-05  -2.5009732e-06   2.2961471e-05   3.1704744e-05  -2.4346256e-04  -1.4269465e-04  -1.7648775e-06   1.6577216e-05  -2.2901191e-06   1.5171633e-05   4.9205878e-05   2.9174599e-05   4.3099834e-05  -3.7494034e-05   1.4615541e-05  -2.0234782e-05  -1.2231061e-04   1.5253197e-05   3.3484401e-05  -2.1329467e-05  -1.2213911e-04  -1.1896526e-04  -3.1788874e-04   8.1043594e-05   6.4921271e-05   2.5341571e-06  -6.5611980e-05  -5.9302902e-05  -2.4118259e-04   0.0000000e+00  -1.0637870e-04  -1.9908216e-05  -6.0573751e-06   2.0833262e-06  -1.0758082e-04  -4.7252034e-05  -2.0303736e-04  -1.0400330e-04  -5.5532594e-05  -9.6189965e-05  -7.4258544e-05  -7.5148598e-05   2.0855905e-04   1.7196743e-04  -8.7317282e-05  -8.7964183e-05  -1.1673309e-04  -7.6584846e-05  -6.9541008e-05  -1.5557978e-04  -4.2410345e-05  -4.5581278e-05  -8.4366248e-05  -6.9618592e-05  -8.2421492e-05  -1.3712756e-04   5.5084783e-06  -7.9253554e-05   1.9784562e-05   1.0024926e-04  -4.9114293e-05   5.6726971e-05  -3.9609946e-05  -7.6282128e-05  -8.6567234e-05   1.0123968e-04   2.0784272e-05   0.0000000e+00  -2.2557412e-04  -1.0404226e-04  -5.7999240e-05  -1.2613254e-04  -1.3106960e-04  -7.8619294e-05  -1.0985365e-04  -7.4298092e-05  -5.8887726e-05  -1.4380384e-04  -1.0806505e-04  -1.2898526e-04   4.2864466e-05   4.8567653e-05  -8.0933483e-05  -9.4650297e-05  -9.8404849e-05  -8.8313335e-05  -8.0377130e-05  -1.4995392e-04  -5.2487403e-05  -1.1031177e-04  -1.0048676e-04  -8.5601869e-05  -3.6977983e-05  -1.3290231e-04   4.4397318e-05  -4.6020878e-05  -8.0894680e-06  -1.3335855e-05  -4.1868403e-05   9.3986949e-05  -1.4899153e-05  -7.1257823e-05  -6.3817276e-05  -3.3756059e-05  -2.1861673e-04   0.0000000e+00   6.5640001e-04   2.9702188e-04   1.4221860e-04   3.7972521e-04   2.3423056e-04   9.7355091e-05   1.7802268e-04   1.3449691e-04   9.7610365e-05   2.5296022e-04   1.1620409e-04   1.5455111e-04   1.5173427e-04   1.9292232e-04   1.7152032e-04   1.2178481e-04   9.1372476e-05   4.6236179e-05   3.0296524e-05   9.5467217e-05   3.5090466e-05   2.0223529e-04   1.2593685e-04   1.7043300e-04   1.5096200e-04   1.0756394e-04  -1.0713258e-04   8.3462737e-05   1.8379286e-04   2.9733388e-05   2.2695136e-04  -3.2326005e-04  -1.5755972e-04   1.5012856e-04   2.6048656e-04   2.1636601e-04   3.9295710e-04   0.0000000e+00  -9.2105737e-06  -4.8254556e-05  -7.0666725e-06   2.8420236e-06  -2.5962655e-05  -4.0871102e-05  -8.8922428e-06   6.8406312e-06  -2.5690060e-05   2.1985774e-06  -4.4122682e-05  -5.0453157e-05   3.5530146e-04   1.1645068e-04  -4.5988420e-05  -2.1762537e-05  -5.3891805e-05  -9.6312024e-05  -9.8887335e-05  -8.8972896e-05  -1.1817963e-04   6.1119477e-05   1.1442040e-05   5.2029357e-05   2.9870441e-05  -7.9790304e-05   3.3247637e-05  -4.2689052e-05   8.5909683e-05   1.0047330e-07   1.6142204e-04  -3.8025473e-05   7.4225190e-06  -8.4976039e-05  -2.9448972e-05   2.4297514e-04   3.0397502e-04   0.0000000e+00   5.2585420e-04   1.2769850e-04   1.9216215e-04   3.4865122e-04   2.3368572e-04   8.7267184e-05   2.9517608e-04   2.1732814e-04   1.9391656e-04   3.7013341e-04   2.3993941e-04   3.3810787e-04   1.0402052e-03   4.0156514e-04   2.3419398e-04   3.0642715e-04   2.0582074e-04   1.5123901e-04   2.3411092e-04   4.7869273e-04   2.1795981e-04   1.3678282e-04   4.2419413e-05   1.9206539e-06   1.0139234e-04   1.2240234e-04   1.7598134e-05   3.2915059e-05   2.2734014e-04   2.6277438e-04   5.8038034e-05  -1.0372095e-05   7.1766483e-05   1.2961533e-04   2.0458024e-04   2.2634647e-04   2.2315546e-04   0.0000000e+00   3.4714872e-04   5.6520376e-05  -3.0791855e-05   1.0212006e-04   4.0217195e-05   1.4405728e-04  -2.5518021e-04  -1.1497802e-04  -4.3023891e-05   2.9869030e-05   2.3334466e-05   1.3999497e-04  -4.7429376e-04  -2.4365514e-04  -2.4177376e-05   2.8672425e-05   5.0625315e-05   1.0120770e-04   1.1729973e-04   1.3667441e-04   6.1078317e-05  -1.2447852e-04   9.7369339e-06  -2.3941814e-04  -3.3801748e-04   1.5449536e-05  -2.9890337e-05  -5.9763899e-05  -2.5191279e-04  -1.9771747e-04  -2.0193785e-04   5.2045264e-05   6.7495389e-05  -1.5660773e-06  -1.5653197e-04  -1.9782755e-04   1.1345915e-05   0.0000000e+00  -3.2566808e-04  -2.5174665e-04  -1.8938808e-04  -2.7116251e-04  -2.0154156e-04  -1.1713741e-04  -3.3459482e-04  -2.0382231e-04  -2.1652736e-04  -2.7052867e-04  -2.2077763e-04  -1.9666077e-04   4.5343260e-05   2.4016171e-05  -2.1775476e-04  -2.6603528e-04  -2.0952789e-04  -1.2445642e-04  -1.2278960e-04  -1.6237359e-04  -1.2947782e-04  -2.1603073e-04  -1.2999478e-04  -2.0996128e-04  -1.6099060e-04  -1.7925323e-04  -1.1367514e-04  -1.7310006e-04  -6.3138837e-05  -1.1239733e-05  -2.1062546e-05  -4.1174092e-05  -1.8637524e-04  -1.5185175e-04  -1.7744343e-04  -1.0860317e-04  -1.6209435e-04   0.0000000e+00  -1.9650252e-04  -5.9705815e-05   4.5888313e-05  -8.0024485e-05  -1.0073980e-04  -6.0898121e-05  -1.3633558e-04  -8.1244801e-06   2.1747111e-05  -2.3013120e-06   2.2690741e-05  -4.1604143e-05   1.2483686e-04   1.1271190e-04   9.9018192e-06   6.6664597e-06   3.6604104e-05   1.0504480e-05  -2.0312527e-05  -1.4369621e-04  -3.6261639e-05  -3.7108496e-05   1.8438050e-05  -8.3104263e-06   1.1974957e-04   8.9274159e-05  -2.6209144e-05   6.3815634e-05   1.4357756e-04   1.8628591e-04   8.0702598e-06  -1.3510790e-04  -8.3879755e-05   6.8403106e-05   1.3752259e-04   2.3496517e-04   1.0692895e-04   0.0000000e+00
  -4.5764080e-04  -2.9868009e-04  -1.8494042e-04  -3.1151058e-04  -2.4787885e-04  -1.8621449e-04  -2.7171392e-04  -1.7986672e-04  -1.9712576e-04  -3.1269982e-04  -2.7236334e-04  -3.3173678e-04   8.5897121e-05   3.3180399e-05  -2.4280386e-04  -3.0578485e-04  -2.7527040e-04  -2.1657246e-04  -2.7502082e-04  -4.4048873e-04  -2.9681909e-04  -2.9147862e-04  -2.8915790e-04  -2.9889500e-04  -1.9086977e-04  -4.2374016e-04  -1.5813249e-04  -1.9908044e-04  -7.3703083e-05  -2.3347929e-05   1.0256085e-04  -6.2584232e-05  -2.7922093e-04  -2.2201734e-04  -1.7246625e-04  -7.1929197e-05  -3.2483288e-05   0.0000000e+00  -1.2540856e-04  -1.3466221e-04  -5.8935915e-05  -8.3030254e-05  -5.8271442e-05  -1.7697643e-05  -6.2405308e-05  -4.2376344e-05  -5.6267695e-05  -5.5866944e-05  -4.3694571e-05  -4.3213097e-05   1.7758272e-04   2.4357171e-04  -4.6717657e-05  -6.9300496e-05  -3.3054294e-05  -2.7720213e-05  -4.9115212e-05  -6.5696828e-05  -5.1665950e-05  -1.7735148e-04  -1.0286722e-04  -1.3892700e-04   8.7209425e-05  -1.5845320e-04  -8.4462635e-05  -7.0003204e-05   1.9511240e-04   1.9695490e-04   2.5069780e-04  -6.5281425e-05  -1.4433039e-04  -6.2828360e-05   5.3906859e-05   2.1191573e-04   1.3281122e-04   0.0000000e+00   1.0543494e-03   5.3722165e-04   3.7420907e-04   6.0926968e-04   5.6069161e-04   2.8001513e-04   1.9666443e-04   2.4023194e-04   2.4765634e-04   3.3789630e-04   3.9257434e-04   4.4278751e-04  -6.5517685e-05   3.3051523e-07   2.5708579e-04   3.9705614e-04   3.7632699e-04   4.5989345e-04   5.1662148e-04   8.2132261e-04   6.0709313e-04   4.9089977e-04   3.3919828e-04   5.9810635e-04   2.6670975e-04   6.3868611e-04   3.8595674e-04   2.1490662e-04   3.3254199e-05  -1.1679770e-04  -1.1212966e-03   4.1779816e-04   7.0154207e-04   2.6249859e-04   1.7491317e-04  -4.1842130e-05  -4.0220016e-04   0.0000000e+00  -2.9919213e-05   1.2076668e-05   4.4589114e-06   8.1777483e-06  -7.2186118e-06   4.7870338e-05  -9.8204012e-05  -2.9064310e-05   1.2613900e-05  -6.4201260e-06   2.1037803e-05   3.0315819e-05  -2.8538080e-04  -1.6690556e-04  -3.0848030e-07   1.6801351e-05  -2.1060900e-06   1.1983344e-05   4.8457439e-05   3.0273525e-05   3.9425228e-05  -4.0937712e-05   1.4434120e-05  -2.2380540e-05  -1.2973512e-04   1.7980398e-05   2.5102427e-05  -2.1648974e-05  -1.3525789e-04  -1.4222790e-04  -3.5532041e-04   7.5879392e-05   5.9089679e-05   5.1822847e-06  -7.0086117e-05  -7.8557022e-05  -2.7581763e-04   0.0000000e+00  -1.3200003e-04  -3.1000041e-05  -9.6285639e-06  -4.8908705e-06  -1.2475984e-04  -5.1288542e-05  -2.1716369e-04  -1.1572114e-04  -6.1934289e-05  -1.0297399e-04  -7.9607485e-05  -7.6451671e-05   1.7419507e-04   1.5866009e-04  -9.1074816e-05  -9.6976957e-05  -1.2177662e-04  -8.0702643e-05  -7.0848073e-05  -1.6122879e-04  -4.7380987e-05  -5.7039115e-05  -9.1127434e-05  -8.5706574e-05  -9.6096640e-05  -1.4410531e-04  -7.6877260e-06  -8.6343046e-05   3.1483770e-06   9.3522222e-05  -6.8217246e-05   4.9426379e-05  -5.4334667e-05  -7.6359274e-05  -9.7432597e-05   8.3312256e-05   1.5030408e-05   0.0000000e+00  -2.3222591e-04  -1.0371248e-04  -5.5385005e-05  -1.2624641e-04  -1.3430298e-04  -7.8902367e-05  -1.0750270e-04  -7.5777981e-05  -5.5398875e-05  -1.4112809e-04  -1.0571605e-04  -1.2714050e-04   5.7045336e-05   5.9542143e-05  -7.9516550e-05  -8.8810117e-05  -9.4370885e-05  -8.7665113e-05  -7.8151746e-05  -1.4889424e-04  -4.7618607e-05  -1.0598313e-04  -9.8880521e-05  -7.8745528e-05  -2.7558951e-05  -1.3006394e-04   5.2429617e-05  -4.3179999e-05  -1.4486915e-06  -5.1557798e-06  -3.9479734e-05   1.0047205e-04  -8.3579662e-06  -7.0218395e-05  -6.0932458e-05  -2.6781254e-05  -2.2047513e-04   0.0000000e+00   7.0742127e-04   3.1443350e-04   1.4639794e-04   4.0535177e-04   2.4947413e-04   1.0932306e-04   1.9189727e-04   1.4536079e-04   9.8325656e-05   2.7251449e-04   1.2666008e-04   1.7896735e-04   1.7478494e-04   1.8777558e-04   1.7372244e-04   1.1595246e-04   9.0977006e-05   5.7363186e-05   4.6052223e-05   1.1397150e-04   3.3480218e-05   1.9613242e-04   1.4141188e-04   1.6020943e-04   1.5720022e-04   1.1185151e-04  -1.3687091e-04   8.0817619e-05   1.7716840e-04   1.8061158e-05   1.8193614e-04  -3.7021250e-04  -1.9616543e-04   1.5911920e-04   2.7599780e-04   2.2069736e-04   3.4660811e-04   0.0000000e+00   2.9254856e-05  -1.9183819e-05   1.1954666e-05   2.8316508e-05  -9.0317894e-06  -2.8066460e-05   7.4642456e-06   1.6481665e-05  -5.4992710e-06   2.3124835e-05  -2.7904097e-05  -3.2970682e-05   4.0003329e-04   1.3704795e-04  -3.6718123e-05   1.4055598e-06  -3.8514353e-05  -8.5366472e-05  -8.3099512e-05  -7.0440819e-05  -9.7015897e-05   9.2677153e-05   3.0825503e-05   8.7815093e-05   5.3226774e-05  -5.6482323e-05   6.2909723e-05  -2.8149768e-05   1.0982518e-04   2.4255696e-05   1.9732698e-04  -1.1428306e-05   4.9037031e-05  -7.4805076e-05  -1.2824296e-05   2.7039092e-04   3.1791840e-04   0.0000000e+00   6.3713925e-04   1.9215803e-04   2.2659408e-04   4.2179847e-04   2.9274000e-04   1.2528936e-04   3.0865430e-04   2.4343492e-04   2.3030244e-04   4.2173264e-04   2.8445698e-04   4.0388559e-04   1.0967414e-03   4.1982714e-04   2.6199630e-04   3.5169848e-04   2.4040667e-04   1.9700213e-04   3.0061518e-04   5.7380825e-04   2.7869570e-04   1.7495782e-04   6.5725251e-05   5.0789420e-05   1.1499861e-04   1.6330309e-04   6.1114960e-05   5.3445468e-05   2.3696392e-04   2.8884682e-04   4.4886100e-05   3.5692124e-05   1.4498805e-04   1.5962183e-04   2.2852652e-04   2.5286320e-04   2.8011130e-04   0.0000000e+00   3.5570490e-04   3.8205918e-05  -4.6822841e-05   8.3922458e-05   4.0583954e-05   1.4163464e-04  -2.7312228e-04  -1.2615910e-04  -5.8366659e-05   2.8788030e-05   1.6114766e-05   1.4405169e-04  -4.8230186e-04  -2.5035758e-04  -2.9589522e-05   1.7613559e-05   5.0163627e-05   1.0222590e-04   1.2087351e-04   1.4491417e-04   4.2247062e-05  -1.3488464e-04   2.2196182e-06  -2.6839648e-04  -3.5845486e-04  -3.7779682e-07  -5.4122769e-05  -6.8758765e-05  -2.5012330e-04  -1.8972639e-04  -1.9852822e-04   3.1181281e-05   4.6635946e-05  -5.6285282e-06  -1.5742599e-04  -1.7972997e-04   2.5688632e-05   0.0000000e+00  -3.4445102e-04  -2.6011759e-04  -2.0087035e-04  -2.8662745e-04  -2.1424561e-04  -1.2686719e-04  -3.5536659e-04  -2.1944567e-04  -2.2913600e-04  -2.8526035e-04  -2.3383504e-04  -2.0847262e-04   4.3990063e-05   1.1649190e-05  -2.3352660e-04  -2.8002659e-04  -2.2332618e-04  -1.3586955e-04  -1.2994196e-04  -1.6752993e-04  -1.3402966e-04  -2.2161386e-04  -1.3391220e-04  -2.1423093e-04  -1.6957870e-04  -1.8443990e-04  -1.2235665e-04  -1.8181222e-04  -7.4487159e-05  -1.6856691e-05  -3.4972350e-05  -4.6197600e-05  -1.9640494e-04  -1.6192434e-04  -1.9340247e-04  -1.1967574e-04  -1.7551441e-04   0.0000000e+00  -2.2777137e-04  -6.4630902e-05   4.8501844e-05  -9.4533378e-05  -1.1403578e-04  -6.7881740e-05  -1.5519685e-04  -1.1110898e-05   1.9508466e-05  -2.0640503e-06   2.5291099e-05  -4.6953922e-05   1.2153174e-04   1.1819557e-04   1.2898779e-05   6.8435202e-06   4.3438352e-05   1.4023534e-05  -1.9941101e-05  -1.5991662e-04  -4.0279932e-05  -3.1230167e-05   2.7436070e-05  -4.2531850e-06   1.3579018e-04   1.0130780e-04  -2.5470491e-05   7.4791383e-05   1.6379054e-04   2.0943267e-04   4.7125066e-05  -1.4747282e-04  -9.2584367e-05   7.9304415e-05   1.5581625e-04   2.6546026e-04   1.4861204e-04   0.0000000e+00
  -5.1004364e-04  -3.2535558e-04  -2.0060921e-04  -3.4237987e-04  -2.8000918e-04  -2.0752717e-04  -2.9486361e-04  -1.9705133e-04  -2.1375499e-04  -3.4430147e-04  -3.0062074e-04  -3.6611391e-04   8.6093716e-05   3.7623574e-05  -2.6079649e-04  -3.3320052e-04  -3.0220526e-04  -2.4288891e-04  -3.0411458e-04  -4.8609970e-04  -3.2118559e-04  -3.1199570e-04  -3.1574787e-04  -3.1789131e-04  -2.0120600e-04  -4.5883337e-04  -1.6532510e-04  -2.1243095e-04  -7.6948914e-05  -2.3765704e-05   1.1320857e-04  -6.1872372e-05  -2.9630443e-04  -2.3766645e-04  -1.8457566e-04  -7.9061301e-05  -4.1889347e-05   0.0000000e+00  -1.4453484e-04  -1.5493190e-04  -6.7113732e-05  -9.9628684e-05  -7.0469554e-05  -2.2515190e-05  -8.5555685e-05  -5.7024949e-05  -6.4363010e-05  -5.8698863e-05  -5.0232560e-05  -4.7481576e-05   1.8114232e-04   2.5956517e-04  -5.6746081e-05  -7.5461779e-05  -3.6916779e-05  -2.9815269e-05  -5.7576881e-05  -7.4307823e-05  -5.9479527e-05  -1.8737721e-04  -1.0825443e-04  -1.4820280e-04   1.0136465e-04  -1.6948412e-04  -9.9060174e-05  -7.2501476e-05   2.0814228e-04   1.9866688e-04   2.8152908e-04  -8.7861508e-05  -1.6893850e-04  -6.9821125e-05   6.2142452e-05   2.3237102e-04   1.9875196e-04   0.0000000e+00   1.0382178e-03   5.2667302e-04   3.6967619e-04   5.9446628e-04   5.5845289e-04   2.8605708e-04   1.7363431e-04   2.2766019e-04   2.3121209e-04   3.1984653e-04   3.8438190e-04   4.3983338e-04  -4.3295368e-05  -4.4463110e-06   2.4020970e-04   3.7310430e-04   3.6795212e-04   4.7215114e-04   5.1988215e-04   8.1890751e-04   6.0019075e-04   4.7749108e-04   3.3906079e-04   5.3941940e-04   2.4500854e-04   6.3645000e-04   3.7490386e-04   2.0151132e-04   3.2144106e-05  -9.8291091e-05  -1.0466179e-03   4.0473939e-04   7.0923305e-04   2.6642617e-04   1.7105373e-04  -1.9758275e-05  -3.1945680e-04   0.0000000e+00  -4.0533677e-05   6.5250737e-06   2.3639750e-06   1.9310123e-06  -1.2333005e-05   4.6848811e-05  -9.3266262e-05  -3.1313677e-05   9.6061263e-06  -8.4441417e-06   2.0457053e-05   3.0262882e-05  -3.2666920e-04  -1.9046019e-04   3.2209115e-06   1.8813371e-05   9.4950968e-08   9.6528437e-06   4.8278574e-05   3.3352125e-05   3.6508207e-05  -4.1254595e-05   1.5830171e-05  -2.1821875e-05  -1.3352450e-04   2.3313546e-05   1.7082849e-05  -1.9516051e-05  -1.4617412e-04  -1.6527138e-04  -3.9049888e-04   6.9146394e-05   5.3427425e-05   9.8669105e-06  -7.1733577e-05  -9.7467540e-05  -3.0808491e-04   0.0000000e+00  -1.5581654e-04  -4.0778457e-05  -1.1861635e-05  -1.1015381e-05  -1.4024862e-04  -5.3544837e-05  -2.2637968e-04  -1.2438819e-04  -6.6386961e-05  -1.0672254e-04  -8.2400825e-05  -7.4729222e-05   1.3331448e-04   1.3879211e-04  -9.1967649e-05  -1.0359537e-04  -1.2387211e-04  -8.2595407e-05  -6.9217410e-05  -1.6216016e-04  -5.0068287e-05  -6.6467063e-05  -9.5416858e-05  -9.8711509e-05  -1.0840908e-04  -1.4671949e-04  -2.0668017e-05  -9.1086543e-05  -1.7345977e-05   8.4234955e-05  -8.8733201e-05   4.2047890e-05  -6.6981738e-05  -7.3649703e-05  -1.0682613e-04   6.0916126e-05   9.2860613e-06   0.0000000e+00  -2.3344998e-04  -1.0011593e-04  -5.0387766e-05  -1.2248420e-04  -1.3432255e-04  -7.6808819e-05  -1.0102597e-04  -7.4696061e-05  -4.9734166e-05  -1.3440326e-04  -9.9866252e-05  -1.2123437e-04   7.0993245e-05   6.9785958e-05  -7.5005843e-05  -7.9497185e-05  -8.6716841e-05  -8.4239744e-05  -7.2979973e-05  -1.4296493e-04  -4.0033995e-05  -9.7990665e-05  -9.4041565e-05  -6.8188015e-05  -1.5245240e-05  -1.2226514e-04   6.0735165e-05  -3.8098849e-05   6.0229055e-06   4.9656146e-06  -3.5630723e-05   1.0580440e-04   5.4638072e-07  -6.6279844e-05  -5.5388015e-05  -1.9025654e-05  -2.1868350e-04   0.0000000e+00   7.4705680e-04   3.2427719e-04   1.4634300e-04   4.2231257e-04   2.6013056e-04   1.1947177e-04   2.0273522e-04   1.5335284e-04   9.6334843e-05   2.8746096e-04   1.3436809e-04   2.0125807e-04   1.9760217e-04   1.7922963e-04   1.7149979e-04   1.0500181e-04   8.8267727e-05   6.8027940e-05   6.2188867e-05   1.3148039e-04   2.8615284e-05   1.8441155e-04   1.5438277e-04   1.4475327e-04   1.5995901e-04   1.1250993e-04  -1.6989029e-04   7.5292082e-05   1.6654661e-04   4.1825018e-06   1.3241475e-04  -4.1803635e-04  -2.3935218e-04   1.6478411e-04   2.8702364e-04   2.2046463e-04   2.9246278e-04   0.0000000e+00   7.7818262e-05   1.7283299e-05   3.3794064e-05   5.8964366e-05   1.3556596e-05  -1.1711740e-05   2.8562978e-05   2.8982905e-05   1.8824670e-05   4.9130083e-05  -7.0749054e-06  -1.0332430e-05   4.4167865e-04   1.5531000e-04  -2.3355683e-05   2.9536717e-05  -1.8276238e-05  -7.0009895e-05  -6.1825594e-05  -4.4333243e-05  -7.0657333e-05   1.2898452e-04   5.4047551e-05   1.2866182e-04   7.9293941e-05  -2.6650956e-05   9.4112512e-05  -9.9863368e-06   1.3323620e-04   5.2381039e-05   2.2996722e-04   1.6921259e-05   9.5310683e-05  -6.0680627e-05   7.0902831e-06   2.9458485e-04   3.2486873e-04   0.0000000e+00   7.5341076e-04   2.6396373e-04   2.6270569e-04   4.9850384e-04   3.5519614e-04   1.6761065e-04   3.2065462e-04   2.6939620e-04   2.6828281e-04   4.7438886e-04   3.3123629e-04   4.7314316e-04   1.1350073e-03   4.3402878e-04   2.9012198e-04   3.9809584e-04   2.7583268e-04   2.4531244e-04   3.7029238e-04   6.7299811e-04   3.4267409e-04   2.1681457e-04   9.3408174e-05   1.0771916e-04   1.3211122e-04   2.1010845e-04   1.0828342e-04   7.7554543e-05   2.4873838e-04   3.1435915e-04   3.5490918e-05   8.2924832e-05   2.2180297e-04   1.9105329e-04   2.5339541e-04   2.8195009e-04   3.4171944e-04   0.0000000e+00   3.6408990e-04   2.1651470e-05  -6.0941292e-05   6.4831611e-05   4.4773305e-05   1.3879278e-04  -2.8558867e-04  -1.3373296e-04  -7.1049475e-05   3.1391355e-05   1.1762586e-05   1.4897256e-04  -4.8014111e-04  -2.5100645e-04  -3.1834891e-05   9.4188954e-06   5.2199192e-05   1.0443374e-04   1.2519033e-04   1.5382268e-04   2.3235800e-05  -1.3986432e-04  -3.8962899e-06  -2.9347313e-04  -3.7427760e-04  -1.6052363e-05  -7.7071546e-05  -7.5564586e-05  -2.4311823e-04  -1.7391046e-04  -1.9068998e-04   1.0170033e-05   2.6987980e-05  -8.4504210e-06  -1.5335027e-04  -1.5105379e-04   4.8280073e-05   0.0000000e+00  -3.5891173e-04  -2.6362057e-04  -2.0879940e-04  -2.9775547e-04  -2.2479491e-04  -1.3465837e-04  -3.6971855e-04  -2.3155328e-04  -2.3866261e-04  -2.9612455e-04  -2.4307153e-04  -2.1638947e-04   3.8539067e-05  -2.2527654e-06  -2.4584619e-04  -2.9021238e-04  -2.3369830e-04  -1.4525658e-04  -1.3385066e-04  -1.6841947e-04  -1.3498919e-04  -2.2192160e-04  -1.3484412e-04  -2.1415527e-04  -1.7394043e-04  -1.8460147e-04  -1.2712608e-04  -1.8651398e-04  -8.5578741e-05  -2.3690200e-05  -5.1093670e-05  -4.9237807e-05  -2.0147277e-04  -1.6855682e-04  -2.0694073e-04  -1.2947167e-04  -1.9009499e-04   0.0000000e+00  -2.6242264e-04  -7.3173531e-05   4.8892497e-05  -1.1138252e-04  -1.2887684e-04  -7.5588334e-05  -1.7651426e-04  -1.6294483e-05   1.5143754e-05  -4.1859378e-06   2.5840041e-05  -5.4510200e-05   1.1349530e-04   1.2065226e-04   1.3998867e-05   4.1577896e-06   4.8314195e-05   1.5746286e-05  -2.1861302e-05  -1.7849450e-04  -4.7923922e-05  -2.8669133e-05   3.4391236e-05  -5.9064572e-06   1.4737807e-04   1.0889021e-04  -2.6685134e-05   8.3339634e-05   1.8128254e-04   2.2899404e-04   8.8964535e-05  -1.5973062e-04  -1.0396592e-04   8.7234117e-05   1.7098971e-04   2.9152084e-04   1.8941684e-04   0.0000000e+00
  -5.5752923e-04  -3.4795559e-04  -2.1362085e-04  -3.6925644e-04  -3.0969676e-04  -2.2673243e-04  -3.1380804e-04  -2.1170380e-04  -2.2753066e-04  -3.7177593e-04  -3.2537464e-04  -3.9639100e-04   8.3843968e-05   4.1217507e-05  -2.7505996e-04  -3.5636945e-04  -3.2553340e-04  -2.6675835e-04  -3.2994892e-04  -5.2648842e-04  -3.4133090e-04  -3.2838369e-04  -3.3855897e-04  -3.3253653e-04  -2.0846014e-04  -4.8805400e-04  -1.6990859e-04  -2.2266665e-04  -7.9135606e-05  -2.3861510e-05   1.2253536e-04  -5.9835428e-05  -3.0910237e-04  -2.4985911e-04  -1.9385139e-04  -8.5617536e-05  -5.1764324e-05   0.0000000e+00  -1.5990875e-04  -1.7247805e-04  -7.3308929e-05  -1.1408592e-04  -7.9978317e-05  -2.6296108e-05  -1.0692142e-04  -7.0149326e-05  -7.0352591e-05  -5.7347044e-05  -5.3940947e-05  -4.8163576e-05   1.8028536e-04   2.7110581e-04  -6.4666537e-05  -7.8514643e-05  -3.8276798e-05  -2.9238491e-05  -6.4304665e-05  -7.9484378e-05  -6.4961345e-05  -1.9368051e-04  -1.1045965e-04  -1.5561062e-04   1.1534218e-04  -1.7529457e-04  -1.1382188e-04  -7.1954553e-05   2.1746247e-04   1.9552457e-04   3.0988385e-04  -1.1180371e-04  -1.9134034e-04  -7.3934148e-05   7.1880398e-05   2.4872773e-04   2.7220769e-04   0.0000000e+00   9.9915256e-04   5.0651626e-04   3.5857791e-04   5.6828908e-04   5.4716535e-04   2.8622175e-04   1.4458953e-04   2.0887429e-04   2.1020270e-04   2.9444346e-04   3.6864214e-04   4.2872000e-04  -1.1828306e-05  -6.4232906e-06   2.1617220e-04   3.3965481e-04   3.5129975e-04   4.7568469e-04   5.1440924e-04   7.9867174e-04   5.8019665e-04   4.5373615e-04   3.3039993e-04   4.6894637e-04   2.1591928e-04   6.1943689e-04   3.5748548e-04   1.8256291e-04   3.0131547e-05  -7.6433583e-05  -9.6111529e-04   3.8584175e-04   7.0678710e-04   2.6462174e-04   1.6413990e-04   4.0078257e-06  -2.3656158e-04   0.0000000e+00  -4.7963627e-05   2.6307002e-06   1.6773721e-06  -2.6643205e-06  -1.5635391e-05   4.6261194e-05  -8.3626139e-05  -3.1092449e-05   7.7428284e-06  -8.1981687e-06   2.1590133e-05   3.1908366e-05  -3.6589777e-04  -2.1258613e-04   8.8763900e-06   2.2808536e-05   4.4915212e-06   8.5902816e-06   4.9050561e-05   3.8690072e-05   3.4824075e-05  -3.8226609e-05   1.9040842e-05  -1.8410860e-05  -1.3364253e-04   3.1364440e-05   1.0141649e-05  -1.4874969e-05  -1.5462917e-04  -1.8723973e-04  -4.2273448e-04   6.1447355e-05   4.8615006e-05   1.6576439e-05  -7.0424959e-05  -1.1511535e-04  -3.3720750e-04   0.0000000e+00  -1.7631864e-04  -4.8530728e-05  -1.2385156e-05  -1.5604480e-05  -1.5329794e-04  -5.3649646e-05  -2.3063517e-04  -1.2957821e-04  -6.8529491e-05  -1.0715562e-04  -8.2326654e-05  -6.9725749e-05   8.7734478e-05   1.1319060e-04  -8.9900744e-05  -1.0734013e-04  -1.2285284e-04  -8.1907900e-05  -6.4297625e-05  -1.5795656e-04  -4.9708165e-05  -7.3161019e-05  -9.6832186e-05  -1.0755698e-04  -1.1888623e-04  -1.4451575e-04  -3.2241077e-05  -9.3122660e-05  -4.1123671e-05   7.2733594e-05  -1.1014142e-04   3.5763437e-05  -7.6225384e-05  -6.8125822e-05  -1.1457418e-04   3.5184905e-05   3.8503119e-06   0.0000000e+00  -2.2887140e-04  -9.3150028e-05  -4.3014621e-05  -1.1471004e-04  -1.3094411e-04  -7.2256968e-05  -9.0374588e-05  -7.0871862e-05  -4.2001143e-05  -1.2375347e-04  -9.0537373e-05  -1.1123199e-04   8.4049256e-05   7.8858452e-05  -6.7339674e-05  -6.6869957e-05  -7.5524618e-05  -7.7969049e-05  -6.4778332e-05  -1.3197228e-04  -2.9706253e-05  -8.6523709e-05  -8.5953529e-05  -5.4178533e-05  -2.6148847e-07  -1.0942549e-04   6.9245230e-05  -3.0756462e-05   1.4143366e-05   1.6668205e-05  -3.0538279e-05   1.1004120e-04   1.1896321e-05  -5.9363023e-05  -4.7197036e-05  -1.0928144e-05  -2.1385705e-04   0.0000000e+00   7.7409849e-04   3.2621720e-04   1.4194668e-04   4.2978954e-04   2.6589104e-04   1.2729498e-04   2.1068872e-04   1.5832067e-04   9.1727827e-05   2.9734540e-04   1.3901423e-04   2.2037379e-04   2.1954442e-04   1.6783125e-04   1.6520859e-04   8.9237279e-05   8.3511011e-05   7.7777683e-05   7.7828485e-05   1.4728324e-04   2.0428560e-05   1.6810600e-04   1.6444237e-04   1.2524945e-04   1.5954497e-04   1.0954738e-04  -2.0524925e-04   6.7261943e-05   1.5276953e-04  -1.1251099e-05   8.0921551e-05  -4.6561505e-04  -2.8585903e-04   1.6706758e-04   2.9355799e-04   2.1601504e-04   2.3211532e-04   0.0000000e+00   1.3543156e-04   6.0166752e-05   5.7596712e-05   9.3856265e-05   4.1379091e-05   7.6956025e-06   5.3924952e-05   4.4143522e-05   4.6558661e-05   7.9610595e-05   1.7768897e-05   1.6781566e-05   4.7961619e-04   1.7084163e-04  -6.2576207e-06   6.1803858e-05   6.2853098e-06  -5.0718001e-05  -3.5760407e-05  -1.1305104e-05  -4.0249869e-05   1.6926980e-04   8.0539363e-05   1.7353879e-04   1.0754803e-04   8.6487319e-06   1.2570913e-04   1.1194133e-05   1.5559491e-04   8.3892225e-05   2.5806561e-04   4.5657899e-05   1.4461699e-04  -4.3179966e-05   2.9703378e-05   3.1545749e-04   3.2523711e-04   0.0000000e+00   8.7344127e-04   3.4192199e-04   3.0007416e-04   5.7771917e-04   4.2040470e-04   2.1372641e-04   3.3172322e-04   2.9508266e-04   3.0737039e-04   5.2788071e-04   3.8000842e-04   5.4521578e-04   1.1552773e-03   4.4469099e-04   3.1850383e-04   4.4516884e-04   3.1197402e-04   2.9548810e-04   4.4183130e-04   7.7499414e-04   4.0888228e-04   2.6181040e-04   1.2538249e-04   1.7125733e-04   1.5289281e-04   2.6253870e-04   1.5782903e-04   1.0491494e-04   2.6350646e-04   3.3918488e-04   3.1294612e-05   1.2954063e-04   2.9994519e-04   2.2331407e-04   2.7906122e-04   3.1405328e-04   4.0686674e-04   0.0000000e+00   3.7247633e-04   7.7668034e-06  -7.2590463e-05   4.5485014e-05   5.2849225e-05   1.3583490e-04  -2.9239914e-04  -1.3750058e-04  -8.0391092e-05   3.7660361e-05   1.0578344e-05   1.5448123e-04  -4.6955666e-04  -2.4628211e-04  -3.0729490e-05   4.6124997e-06   5.6814056e-05   1.0788889e-04   1.3005745e-04   1.6249713e-04   4.7124486e-06  -1.3945083e-04  -8.7081717e-06  -3.1428125e-04  -3.8607355e-04  -3.1473610e-05  -9.7782094e-05  -8.0096475e-05  -2.3238110e-04  -1.5147687e-04  -1.7974373e-04  -9.6755781e-06   9.7065325e-06  -1.0161690e-05  -1.4511895e-04  -1.1362071e-04   7.8374248e-05   0.0000000e+00  -3.6871895e-04  -2.6204831e-04  -2.1290203e-04  -3.0420639e-04  -2.3294025e-04  -1.4013451e-04  -3.7754589e-04  -2.3979588e-04  -2.4488135e-04  -3.0288104e-04  -2.4817812e-04  -2.1994968e-04   2.8560179e-05  -1.7241727e-05  -2.5446140e-04  -2.9641560e-04  -2.4040173e-04  -1.5221156e-04  -1.3412931e-04  -1.6468336e-04  -1.3206954e-04  -2.1693249e-04  -1.3258722e-04  -2.0986062e-04  -1.7412266e-04  -1.7939681e-04  -1.2750743e-04  -1.8699117e-04  -9.6212998e-05  -3.1725493e-05  -6.9029253e-05  -4.9973111e-05  -2.0111910e-04  -1.7143529e-04  -2.1780661e-04  -1.3761872e-04  -2.0530873e-04   0.0000000e+00  -3.0054650e-04  -8.5940741e-05   4.6787694e-05  -1.3075120e-04  -1.4547175e-04  -8.4166076e-05  -2.0012023e-04  -2.3818547e-05   8.5050354e-06  -9.1071627e-06   2.3921095e-05  -6.4693259e-05   1.0118713e-04   1.2008523e-04   1.2780224e-05  -1.8233895e-06   5.0610557e-05   1.5092464e-05  -2.6807698e-05  -1.9983500e-04  -5.9903772e-05  -3.0545392e-05   3.8429644e-05  -1.4208303e-05   1.5370504e-04   1.1085373e-04  -3.0403829e-05   8.8762929e-05   1.9533095e-04   2.4420033e-04   1.3180701e-04  -1.7199601e-04  -1.1862109e-04   9.1478740e-05   1.8230735e-04   3.1203500e-04   2.2746466e-04   0.0000000e+00
  -5.9872465e-04  -3.6581757e-04  -2.2356909e-04  -3.9131880e-04  -3.3609830e-04  -2.4325779e-04  -3.2796534e-04  -2.2336331e-04  -2.3806738e-04  -3.9429899e-04  -3.4587701e-04  -4.2164408e-04   7.9159677e-05   4.3730741e-05  -2.8517914e-04  -3.7460489e-04  -3.4456785e-04  -2.8747492e-04  -3.5177336e-04  -5.6049974e-04  -3.5671223e-04  -3.4027063e-04  -3.5696169e-04  -3.4249191e-04  -2.1247207e-04  -5.1059697e-04  -1.7186556e-04  -2.2950513e-04  -8.0313353e-05  -2.3731227e-05   1.3011680e-04  -5.6636788e-05  -3.1739158e-04  -2.5824392e-04  -2.0000419e-04  -9.1513254e-05  -6.1832146e-05   0.0000000e+00  -1.7033039e-04  -1.8633635e-04  -7.7095885e-05  -1.2550531e-04  -8.5921477e-05  -2.8714849e-05  -1.2533759e-04  -8.0906100e-05  -7.3785558e-05  -5.1396699e-05  -5.4341254e-05  -4.4778028e-05   1.7415619e-04   2.7755374e-04  -6.9926803e-05  -7.8127887e-05  -3.6750326e-05  -2.5671915e-05  -6.8885138e-05  -8.0576783e-05  -6.7671718e-05  -1.9611632e-04  -1.0924217e-04  -1.6107714e-04   1.2841817e-04  -1.7539176e-04  -1.2850659e-04  -6.8168540e-05   2.2266341e-04   1.8710989e-04   3.3467069e-04  -1.3654349e-04  -2.1072652e-04  -7.4773297e-05   8.2904361e-05   2.6011828e-04   3.5149452e-04   0.0000000e+00   9.3996491e-04   4.7858241e-04   3.4240177e-04   5.3303188e-04   5.2850161e-04   2.8065858e-04   1.1248696e-04   1.8558694e-04   1.8626010e-04   2.6342540e-04   3.4666418e-04   4.1065158e-04   2.6971262e-05  -5.2378333e-06   1.8691598e-04   2.9912751e-04   3.2806403e-04   4.7084565e-04   5.0127590e-04   7.6224602e-04   5.4867254e-04   4.2168065e-04   3.1384003e-04   3.9203193e-04   1.8182393e-04   5.8934796e-04   3.3518013e-04   1.5975074e-04   2.7420482e-05  -5.3619211e-05  -8.7182159e-04   3.6290531e-04   6.9579593e-04   2.5765621e-04   1.5515485e-04   2.7272387e-05  -1.6037224e-04   0.0000000e+00  -5.1644734e-05   6.5431434e-07   2.5374243e-06  -5.2400720e-06  -1.6766579e-05   4.6366953e-05  -6.9769270e-05  -2.8283748e-05   7.2474279e-06  -5.5213871e-06   2.4640326e-05   3.5426679e-05  -4.0173103e-04  -2.3260971e-04   1.6515921e-05   2.8783274e-05   1.1069117e-05   9.0926405e-06   5.1034351e-05   4.6327466e-05   3.4706485e-05  -3.1920789e-05   2.4123461e-05  -1.2259542e-05  -1.3033850e-04   4.1983218e-05   4.8906945e-06  -7.8843823e-06  -1.6055252e-04  -2.0731799e-04  -4.5149518e-04   5.3435418e-05   4.5225407e-05   2.5113472e-05  -6.6266091e-05  -1.3068960e-04  -3.6265596e-04   0.0000000e+00  -1.9217763e-04  -5.3712192e-05  -1.0954628e-05  -1.8085279e-05  -1.6329271e-04  -5.1334156e-05  -2.3025763e-04  -1.3112061e-04  -6.8144071e-05  -1.0420597e-04  -7.9239380e-05  -6.1352712e-05   3.9350346e-05   8.3003067e-05  -8.4987995e-05  -1.0790118e-04  -1.1872142e-04  -7.8387840e-05  -5.5867346e-05  -1.4842630e-04  -4.5644382e-05  -7.6625701e-05  -9.5126590e-05  -1.1144521e-04  -1.2720146e-04  -1.3728711e-04  -4.1235937e-05  -9.2249237e-05  -6.7403965e-05   5.9403944e-05  -1.3185005e-04   3.1759378e-05  -8.0885974e-05  -5.9914965e-05  -1.2065651e-04   7.4650750e-06  -9.8412462e-07   0.0000000e+00  -2.1832263e-04  -8.2851349e-05  -3.3383745e-05  -1.0294549e-04  -1.2409688e-04  -6.5257431e-05  -7.5692335e-05  -6.4247939e-05  -3.2398848e-05  -1.0945735e-04  -7.7894982e-05  -9.7260579e-05   9.5668694e-05   8.6435699e-05  -5.6609856e-05  -5.1224988e-05  -6.1036098e-05  -6.8891502e-05  -5.3575291e-05  -1.1591264e-04  -1.6720671e-05  -7.1940855e-05  -7.4737215e-05  -3.7151634e-05   1.7034420e-05  -9.1705511e-05   7.7892498e-05  -2.1245555e-05   2.2751918e-05   2.9500850e-05  -2.4485977e-05   1.1330985e-04   2.5663734e-05  -4.9543569e-05  -3.6493297e-05  -2.8747344e-06  -2.0673489e-04   0.0000000e+00   7.8797260e-04   3.2037490e-04   1.3334902e-04   4.2747996e-04   2.6670898e-04   1.3239121e-04   2.1614743e-04   1.6030372e-04   8.4727442e-05   3.0198593e-04   1.4047684e-04   2.3538878e-04   2.4000813e-04   1.5420137e-04   1.5542684e-04   6.9236971e-05   7.7094701e-05   8.6231171e-05   9.2078088e-05   1.6073061e-04   9.0714760e-06   1.4853889e-04   1.7134913e-04   1.0317279e-04   1.5649849e-04   1.0318962e-04  -2.4182736e-04   5.7262198e-05   1.3681398e-04  -2.7517223e-05   2.9828918e-05  -5.1177136e-04  -3.3415633e-04   1.6610220e-04   2.9584176e-04   2.0788701e-04   1.6704849e-04   0.0000000e+00   2.0038591e-04   1.0808454e-04   8.2361887e-05   1.3172071e-04   7.3634348e-05   2.9461983e-05   8.2776586e-05   6.1569991e-05   7.6773660e-05   1.1365403e-04   4.5772349e-05   4.7386361e-05   5.1344006e-04   1.8348596e-04   1.3970048e-05   9.7113952e-05   3.4369317e-05  -2.8168576e-05  -5.8859254e-06   2.7527736e-05  -7.1641558e-06   2.1250014e-04   1.0951155e-04   2.2115436e-04   1.3737777e-04   4.8011434e-05   1.5655951e-04   3.4607091e-05   1.7648671e-04   1.1802421e-04   2.8070116e-04   7.3438192e-05   1.9514016e-04  -2.3064723e-05   5.4277523e-05   3.3313439e-04   3.1983067e-04   0.0000000e+00   9.9560192e-04   4.2435516e-04   3.3806354e-04   6.5806679e-04   4.8748795e-04   2.6286538e-04   3.4213761e-04   3.2022197e-04   3.4690253e-04   5.8173171e-04   4.3027656e-04   6.1911224e-04   1.1585443e-03   4.5227391e-04   3.4688665e-04   4.9220464e-04   3.4857980e-04   3.4674610e-04   5.1371734e-04   8.7810677e-04   4.7609345e-04   3.0902153e-04   1.6116014e-04   2.3935424e-04   1.7704710e-04   3.1976748e-04   2.0837235e-04   1.3490568e-04   2.8164874e-04   3.6304536e-04   3.3176349e-05   1.7395657e-04   3.7714334e-04   2.5564602e-04   3.0512530e-04   3.4917476e-04   4.7395206e-04   0.0000000e+00   3.8052157e-04  -2.9411652e-06  -8.1510220e-05   2.6240179e-05   6.4395311e-05   1.3283025e-04  -2.9372475e-04  -1.3754336e-04  -8.6039312e-05   4.7125930e-05   1.2468143e-05   1.5994487e-04  -4.5299707e-04  -2.3731359e-04  -2.6399464e-05   3.2972030e-06   6.3724833e-05   1.1233161e-04   1.3495036e-04   1.6960749e-04  -1.2980934e-05  -1.3414072e-04  -1.2603225e-05  -3.3079385e-04  -3.9470257e-04  -4.6812609e-05  -1.1559169e-04  -8.2494383e-05  -2.1973837e-04  -1.2420266e-04  -1.6735202e-04  -2.7292272e-05  -4.4931245e-06  -1.1118413e-05  -1.3391850e-04  -7.0008191e-05   1.1444530e-04   0.0000000e+00  -3.7351318e-04  -2.5525097e-04  -2.1301641e-04  -3.0570708e-04  -2.3840190e-04  -1.4295442e-04  -3.7901139e-04  -2.4395173e-04  -2.4761841e-04  -3.0534760e-04  -2.4894916e-04  -2.1878698e-04   1.3910285e-05  -3.2847375e-05  -2.5924251e-04  -2.9850827e-04  -2.4328602e-04  -1.5639510e-04  -1.3049688e-04  -1.5604663e-04  -1.2507646e-04  -2.0677373e-04  -1.2697652e-04  -2.0153840e-04  -1.7036250e-04  -1.6861311e-04  -1.2323108e-04  -1.8317820e-04  -1.0620326e-04  -4.0871735e-05  -8.8278115e-05  -4.8176837e-05  -1.9506983e-04  -1.7038288e-04  -2.2582424e-04  -1.4377665e-04  -2.2039738e-04   0.0000000e+00  -3.4209186e-04  -1.0327214e-04   4.2037279e-05  -1.5270803e-04  -1.6395535e-04  -9.3721398e-05  -2.2563297e-04  -3.3660196e-05  -4.4263531e-07  -1.7103520e-05   1.9250134e-05  -7.7780939e-05   8.5372469e-05   1.1670440e-04   8.9741819e-06  -1.1310663e-05   4.9848869e-05   1.1595350e-05  -3.5377092e-05  -2.2420438e-04  -7.6708338e-05  -3.7693001e-05   3.8825443e-05  -2.9620484e-05   1.5432824e-04   1.0631690e-04  -3.7021869e-05   9.0554330e-05   2.0543014e-04   2.5453833e-04   1.7387859e-04  -1.8437066e-04  -1.3697014e-04   9.1529774e-05   1.8925394e-04   3.2618426e-04   2.6105637e-04   0.0000000e+00
  -6.3243432e-04  -3.7842622e-04  -2.3014431e-04  -4.0789029e-04  -3.5847302e-04  -2.5661088e-04  -3.3693145e-04  -2.3167198e-04  -2.4509226e-04  -4.1121264e-04  -3.6152045e-04  -4.4109995e-04   7.2164672e-05   4.4983695e-05  -2.9087887e-04  -3.8738269e-04  -3.5876231e-04  -3.0443579e-04  -3.6895717e-04  -5.8716342e-04  -3.6694384e-04  -3.4741734e-04  -3.7046110e-04  -3.4755051e-04  -2.1318159e-04  -5.2586215e-04  -1.7126904e-04  -2.3277424e-04  -8.0562919e-05  -2.3483916e-05   1.3557137e-04  -5.2492080e-05  -3.2110340e-04  -2.6259209e-04  -2.0285283e-04  -9.6676100e-05  -7.1771394e-05   0.0000000e+00  -1.7482337e-04  -1.9572559e-04  -7.8188353e-05  -1.3314294e-04  -8.7625912e-05  -2.9542377e-05  -1.3983130e-04  -8.8592139e-05  -7.4355766e-05  -4.0714007e-05  -5.1167658e-05  -3.7104883e-05   1.6205340e-04   2.7852371e-04  -7.2143180e-05  -7.4195562e-05  -3.2119549e-05  -1.8981440e-05  -7.1050542e-05  -7.7201972e-05  -6.7358424e-05  -1.9473600e-04  -1.0454352e-04  -1.6460082e-04   1.3987399e-04  -1.6961694e-04  -1.4288210e-04  -6.1140174e-05   2.2353756e-04   1.7324452e-04   3.5499573e-04  -1.6151212e-04  -2.2649745e-04  -7.2143953e-05   9.4871942e-05   2.6595746e-04   4.3474377e-04   0.0000000e+00   8.6436521e-04   4.4494731e-04   3.2289011e-04   4.9135749e-04   5.0442746e-04   2.6981635e-04   8.0736398e-05   1.5984701e-04   1.6111386e-04   2.2877740e-04   3.2003359e-04   3.8715091e-04   7.0182679e-05  -8.8043695e-07   1.5478869e-04   2.5431658e-04   3.0032413e-04   4.5840845e-04   4.8189112e-04   7.1200856e-04   5.0771053e-04   3.8375730e-04   2.9041348e-04   3.1424829e-04   1.4546949e-04   5.4861249e-04   3.0959187e-04   1.3506271e-04   2.4202093e-05  -3.2596943e-05  -7.8564305e-04   3.3778673e-04   6.7815964e-04   2.4639548e-04   1.4517674e-04   4.7616245e-05  -9.7364889e-05   0.0000000e+00  -5.1382926e-05   6.4637294e-07   4.9362778e-06  -5.6434759e-06  -1.5569497e-05   4.7327020e-05  -5.2507598e-05  -2.2985697e-05   8.2072066e-06  -4.8151040e-07   2.9625523e-05   4.0785932e-05  -4.3301180e-04  -2.4999892e-04   2.5812083e-05   3.6531505e-05   1.9613441e-05   1.1315999e-05   5.4346227e-05   5.6047764e-05   3.6323223e-05  -2.2682295e-05   3.0943128e-05  -3.7318012e-06  -1.2413139e-04   5.4764022e-05   1.7940390e-06   1.0903229e-06  -1.6406507e-04  -2.2478522e-04  -4.7643159e-04   4.5764633e-05   4.3677914e-05   3.5105785e-05  -5.9593089e-05  -1.4354845e-04  -3.8416013e-04   0.0000000e+00  -2.0235508e-04  -5.5975418e-05  -7.4649781e-06  -1.8048898e-05  -1.6978539e-04  -4.6449027e-05  -2.2591819e-04  -1.2911215e-04  -6.5163707e-05  -9.8024959e-05  -7.3165452e-05  -4.9691594e-05  -9.9757983e-06   4.9617828e-05  -7.7550377e-05  -1.0516276e-04  -1.1165593e-04  -7.1904499e-05  -4.3854680e-05  -1.3362089e-04  -3.7380543e-05  -7.6608311e-05  -9.0231796e-05  -1.0990609e-04  -1.3319047e-04  -1.2510167e-04  -4.6582365e-05  -8.8441798e-05  -9.5246244e-05   4.4659657e-05  -1.5321430e-04   3.1145820e-05  -8.0013847e-05  -4.9295773e-05  -1.2520537e-04  -2.0780486e-05  -4.9389837e-06   0.0000000e+00  -2.0187380e-04  -6.9409444e-05  -2.1729350e-05  -8.7386166e-05  -1.1383714e-04  -5.5920472e-05  -5.7327211e-05  -5.4903405e-05  -2.1212295e-05  -9.1947760e-05  -6.2248613e-05  -7.9615051e-05   1.0548224e-04   9.2342733e-05  -4.3071750e-05  -3.2988875e-05  -4.3649431e-05  -5.7159437e-05  -3.9520862e-05  -9.4994068e-05  -1.2875905e-06  -5.4764532e-05  -6.0655599e-05  -1.7715615e-05   3.6163096e-05  -6.9515805e-05   8.6602418e-05  -9.7795017e-06   3.1721350e-05   4.2959224e-05  -1.7798372e-05   1.1579118e-04   4.1689625e-05  -3.7060022e-05  -2.3532581e-05   4.8326750e-06  -1.9812635e-04   0.0000000e+00   7.8879041e-04   3.0732092e-04   1.2093778e-04   4.1562357e-04   2.6281880e-04   1.3448534e-04   2.1969782e-04   1.5953467e-04   7.5676286e-05   3.0148923e-04   1.3883460e-04   2.4559731e-04   2.5847968e-04   1.3899025e-04   1.4290990e-04   4.5824406e-05   6.9497668e-05   9.3101627e-05   1.0408449e-04   1.7128590e-04  -5.0953237e-06   1.2723884e-04   1.7504781e-04   8.0198161e-05   1.5155468e-04   9.3877385e-05  -2.7837788e-04   4.5950594e-05   1.1973408e-04  -4.3877930e-05  -1.8782416e-05  -5.5532129e-04  -3.8254166e-04   1.6219623e-04   2.9435298e-04   1.9677395e-04   9.8686680e-05   0.0000000e+00   2.7036862e-04   1.5931102e-04   1.0699403e-04   1.7099999e-04   1.0916789e-04   5.2726068e-05   1.1408532e-04   8.0696954e-05   1.0838267e-04   1.5007147e-04   7.5855737e-05   8.0239413e-05   5.4293397e-04   1.9331618e-04   3.6499719e-05   1.3415035e-04   6.4942877e-05  -3.2167463e-06   2.6565684e-05   7.0637074e-05   2.7066716e-05   2.5741934e-04   1.3999080e-04   2.6999897e-04   1.6809369e-04   8.9752594e-05   1.8557820e-04   5.9331691e-05   1.9563867e-04   1.5384876e-04   2.9736698e-04   9.9006626e-05   2.4495499e-04  -1.2384650e-06   7.9968730e-05   3.4790950e-04   3.0977199e-04   0.0000000e+00   1.1177240e-03   5.0905109e-04   3.7577250e-04   7.3776990e-04   5.5526501e-04   3.1396507e-04   3.5181225e-04   3.4433688e-04   3.8598429e-04   6.3510825e-04   4.8124182e-04   6.9342986e-04   1.1463541e-03   4.5709305e-04   3.7477280e-04   5.3818800e-04   3.8518590e-04   3.9814853e-04   5.8422799e-04   9.8017562e-04   5.4284050e-04   3.5710094e-04   1.9978570e-04   3.0938705e-04   2.0377356e-04   3.8038209e-04   2.5845568e-04   1.6659511e-04   3.0298226e-04   3.8547108e-04   4.1379293e-05   2.1484714e-04   4.5115399e-04   2.8711941e-04   3.3088673e-04   3.8677374e-04   5.4087006e-04   0.0000000e+00   3.8736644e-04  -1.0384077e-05  -8.7727293e-05   7.1771921e-06   7.8514241e-05   1.2960607e-04  -2.9007812e-04  -1.3422127e-04  -8.7982022e-05   5.8889809e-05   1.6929287e-05   1.6438823e-04  -4.3341617e-04  -2.2557998e-04  -1.9281570e-05   5.1838078e-06   7.2321304e-05   1.1719343e-04   1.3902254e-04   1.7346139e-04  -2.9845716e-05  -1.2484478e-04  -1.6231963e-05  -3.4329413e-04  -4.0123297e-04  -6.2506209e-05  -1.3017068e-04  -8.3111748e-05  -2.0721720e-04  -9.4305634e-05  -1.5539593e-04  -4.1933420e-05  -1.5398373e-05  -1.1883294e-05  -1.2124283e-04  -2.3384841e-05   1.5427011e-04   0.0000000e+00  -3.7288307e-04  -2.4311628e-04  -2.0907960e-04  -3.0203758e-04  -2.4086318e-04  -1.4281481e-04  -3.7448326e-04  -2.4392432e-04  -2.4673476e-04  -3.0339678e-04  -2.4527701e-04  -2.1263429e-04  -5.2611677e-06  -4.8605455e-05  -2.6016337e-04  -2.9638683e-04  -2.4228327e-04  -1.5754084e-04  -1.2278041e-04  -1.4230823e-04  -1.1390198e-04  -1.9167456e-04  -1.1787722e-04  -1.8939989e-04  -1.6304982e-04  -1.5215632e-04  -1.1423901e-04  -1.7514530e-04  -1.1537943e-04  -5.0961319e-05  -1.0827010e-04  -4.3727130e-05  -1.8323512e-04  -1.6534722e-04  -2.3087843e-04  -1.4766507e-04  -2.3443251e-04   0.0000000e+00  -3.8686200e-04  -1.2522823e-04   3.4615521e-05  -1.7720099e-04  -1.8439099e-04  -1.0432432e-04  -2.5250113e-04  -4.5641188e-05  -1.1625346e-05  -2.8278853e-05   1.1677790e-05  -9.3898262e-05   6.7063868e-05   1.1090923e-04   2.4932682e-06  -2.4291357e-05   4.5730914e-05   4.9266216e-06  -4.7987574e-05  -2.5170206e-04  -9.8562862e-05  -5.0607324e-05   3.5050009e-05  -5.2106845e-05   1.4918678e-04   9.4735797e-05  -4.6748580e-05   8.8413072e-05   2.1130771e-04   2.5976519e-04   2.1354238e-04  -1.9693813e-04  -1.5921899e-04   8.7120059e-05   1.9156143e-04   3.3347492e-04   2.8878510e-04   0.0000000e+00
  -6.5767385e-04  -3.8543052e-04  -2.3314625e-04  -4.1845879e-04  -3.7620238e-04  -2.6639475e-04  -3.4049465e-04  -2.3638636e-04  -2.4845115e-04  -4.2204527e-04  -3.7185501e-04  -4.5415959e-04   6.3087416e-05   4.4863504e-05  -2.9203037e-04  -3.9435678e-04  -3.6772568e-04  -3.1715843e-04  -3.8100517e-04  -6.0572228e-04  -3.7180421e-04  -3.4971968e-04  -3.7870821e-04  -3.4763881e-04  -2.1062449e-04  -5.3346622e-04  -1.6827036e-04  -2.3241527e-04  -7.9985832e-05  -2.3232246e-05   1.3859131e-04  -4.7652234e-05  -3.2031694e-04  -2.6280483e-04  -2.0232485e-04  -1.0104159e-04  -8.1228223e-05   0.0000000e+00  -1.7271053e-04  -2.0011368e-04  -7.6468718e-05  -1.3647925e-04  -8.4672531e-05  -2.8663576e-05  -1.4970180e-04  -9.2691056e-05  -7.1931331e-05  -2.5464286e-05  -4.4399349e-05  -2.5212091e-05   1.4349662e-04   2.7391870e-04  -7.1125155e-05  -6.6846431e-05  -2.4366796e-05  -9.2328559e-06  -7.0707118e-05  -6.9287065e-05  -6.3981244e-05  -1.8979148e-04  -9.6500688e-05  -1.6626739e-04   1.4903575e-04  -1.5817371e-04  -1.5673092e-04  -5.1055651e-05   2.2008236e-04   1.5403341e-04   3.7021816e-04  -1.8615666e-04  -2.3829876e-04  -6.6069560e-05   1.0733261e-04   2.6598969e-04   5.2000690e-04   0.0000000e+00   7.7667793e-04   4.0776595e-04   3.0191447e-04   4.4612997e-04   4.7705135e-04   2.5440553e-04   5.2917821e-05   1.3388750e-04   1.3646596e-04   1.9260135e-04   2.9047990e-04   3.5994759e-04   1.1406407e-04   6.2885641e-06   1.2237173e-04   2.0818681e-04   2.7039968e-04   4.3951134e-04   4.5787933e-04   6.5094285e-04   4.5976186e-04   3.4259641e-04   2.6147056e-04   2.4096554e-04   1.0973514e-04   5.0019131e-04   2.8232824e-04   1.1060731e-04   2.0613824e-05  -1.6274110e-05  -7.0891721e-04   3.1226113e-04   6.5592618e-04   2.3190309e-04   1.3527222e-04   6.2557606e-05  -5.3139174e-05   0.0000000e+00  -4.7365941e-05   2.4514916e-06   8.7201767e-06  -3.9450171e-06  -1.2101322e-05   4.9187772e-05  -3.2923988e-05  -1.5505174e-05   1.0567724e-05   6.6311077e-06   3.6370861e-05   4.7744009e-05  -4.5882593e-04  -2.6439411e-04   3.6270822e-05   4.5657203e-05   2.9723820e-05   1.5262520e-05   5.8944482e-05   6.7387373e-05   3.9663792e-05  -1.1113278e-05   3.9179647e-05   6.5822604e-06  -1.1577479e-04   6.9071249e-05   1.1304310e-06   1.1504681e-05  -1.6546505e-04  -2.3905902e-04  -4.9738216e-04   3.9038762e-05   4.4203056e-05   4.6028759e-05  -5.0950162e-05  -1.5326494e-04  -4.0170261e-04   0.0000000e+00  -2.0616040e-04  -5.5184392e-05  -1.9575192e-06  -1.5277893e-05  -1.7252173e-04  -3.8977467e-05  -2.1857442e-04  -1.2390036e-04  -5.9673711e-05  -8.8963133e-05  -6.4301210e-05  -3.4988130e-05  -5.8516058e-05   1.4567666e-05  -6.8097854e-05  -9.9209177e-05  -1.0199563e-04  -6.2465547e-05  -2.8343616e-05  -1.1382794e-04  -2.4621924e-05  -7.3109647e-05  -8.2260694e-05  -1.0282170e-04  -1.3684470e-04  -1.0829330e-04  -4.7391715e-05  -8.1849672e-05  -1.2361058e-04   2.8934639e-05  -1.7355517e-04   3.4873682e-05  -7.2968996e-05  -3.6679091e-05  -1.2847083e-04  -4.8088271e-05  -7.7546498e-06   0.0000000e+00  -1.7985225e-04  -5.3172384e-05  -8.3953028e-06  -6.8404420e-05  -1.0035863e-04  -4.4458451e-05  -3.5825568e-05  -4.3057159e-05  -8.8067800e-06  -7.1798889e-05  -4.4047544e-05  -5.8758128e-05   1.1333897e-04   9.6569740e-05  -2.7141563e-05  -1.2708061e-05  -2.3909941e-05  -4.3042318e-05  -2.2890833e-05  -6.9642699e-05   1.6255223e-05  -3.5665450e-05  -4.4110608e-05   3.3713399e-06   5.6542014e-05  -4.3518230e-05   9.5287313e-05   3.3086746e-06   4.0958144e-05   5.6522719e-05  -1.0810208e-05   1.1769632e-04   5.9677679e-05  -2.2312915e-05  -8.6858516e-06   1.1993618e-05  -1.8885285e-04   0.0000000e+00   7.7734520e-04   2.8803160e-04   1.0532816e-04   3.9500257e-04   2.5470985e-04   1.3345205e-04   2.2207254e-04   1.5640640e-04   6.5010780e-05   2.9625681e-04   1.3436481e-04   2.5054632e-04   2.7454131e-04   1.2284998e-04   1.2853755e-04   2.0025614e-05   6.1268922e-05   9.8221990e-05   1.1310203e-04   1.7855553e-04  -2.1516164e-05   1.0583997e-04   1.7565965e-04   5.8097439e-05   1.4559473e-04   8.2226368e-05  -3.1360347e-04   3.4081342e-05   1.0259416e-04  -5.9634468e-05  -6.3219076e-05  -5.9514256e-04  -4.2925057e-04   1.5581582e-04   2.8977146e-04   1.8348557e-04   2.8418814e-05   0.0000000e+00   3.4256026e-04   2.1185155e-04   1.3036083e-04   2.0991675e-04   1.4652400e-04   7.6501837e-05   1.4661491e-04   1.0080975e-04   1.4019475e-04   1.8746050e-04   1.0676781e-04   1.1389277e-04   5.6804806e-04   2.0060435e-04   6.0325292e-05   1.7143090e-04   9.6788261e-05   2.3144198e-05   6.0176499e-05   1.1614756e-04   6.0823312e-05   3.0259348e-04   1.7085989e-04   3.1840538e-04   1.9895052e-04   1.3199266e-04   2.1178325e-04   8.4358701e-05   2.1291505e-04   1.9031938e-04   3.0800825e-04   1.2125727e-04   2.9211157e-04   2.1296566e-05   1.0586139e-04   3.6018820e-04   2.9639467e-04   0.0000000e+00   1.2370461e-03   5.9329512e-04   4.1204338e-04   8.1464586e-04   6.2222137e-04   3.6563814e-04   3.6027233e-04   3.6674197e-04   4.2348565e-04   6.8678414e-04   5.3176787e-04   7.6633048e-04   1.1206259e-03   4.5925125e-04   4.0141052e-04   5.8175451e-04   4.2107625e-04   4.4858492e-04   6.5141044e-04   1.0785263e-03   6.0738194e-04   4.0429554e-04   2.3983272e-04   3.7824899e-04   2.3178275e-04   4.4236251e-04   3.0655054e-04   1.9878115e-04   3.2675241e-04   4.0579269e-04   5.5436937e-05   2.5115106e-04   5.1977580e-04   3.1665115e-04   3.5534922e-04   4.2571565e-04   6.0505539e-04   0.0000000e+00   3.9169452e-04  -1.4896626e-05  -9.1560231e-05  -1.1903694e-05   9.3879521e-05   1.2575448e-04  -2.8232366e-04  -1.2816143e-04  -8.6563414e-05   7.1682865e-05   2.3096651e-05   1.6657487e-04  -4.1406173e-04  -2.1281102e-04  -1.0091941e-05   9.5935402e-06   8.1698529e-05   1.2163673e-04   1.4116022e-04   1.7212119e-04  -4.6216082e-05  -1.1280943e-04  -2.0453866e-05  -3.5235132e-04  -4.0684672e-04  -7.9203979e-05  -1.4152116e-04  -8.2476149e-05  -1.9689937e-04  -6.4305180e-05  -1.4582630e-04  -5.3242091e-05  -2.3324685e-05  -1.3172128e-05  -1.0876008e-04   2.2714000e-05   1.9510669e-04   0.0000000e+00  -3.6634236e-04  -2.2555755e-04  -2.0112411e-04  -2.9302146e-04  -2.3997038e-04  -1.3945686e-04  -3.6448355e-04  -2.3973435e-04  -2.4214518e-04  -2.9695453e-04  -2.3714666e-04  -2.0132549e-04  -2.8517583e-05  -6.4093617e-05  -2.5728308e-04  -2.8996112e-04  -2.3738875e-04  -1.5546526e-04  -1.1091207e-04  -1.2333405e-04  -9.8511946e-05  -1.7193546e-04  -1.0517906e-04  -1.7364771e-04  -1.5268093e-04  -1.3003480e-04  -1.0067604e-04  -1.6308761e-04  -1.2358352e-04  -6.1765146e-05  -1.2841626e-04  -3.6599914e-05  -1.6569699e-04  -1.5638820e-04  -2.3290392e-04  -1.4908479e-04  -2.4641275e-04   0.0000000e+00  -4.3452598e-04  -1.5159803e-04   2.4608291e-05  -2.0406023e-04  -2.0676214e-04  -1.1599735e-04  -2.8004181e-04  -5.9445514e-05  -2.4867868e-05  -4.2566691e-05   1.1921491e-06  -1.1301003e-04   4.7447886e-05   1.0326392e-04  -6.5786996e-06  -4.0530625e-05   3.8149581e-05  -5.0757010e-06  -6.4850537e-05  -2.8226500e-04  -1.2541739e-04  -6.9419400e-05   2.6795095e-05  -8.1157881e-05   1.3859810e-04   7.5939495e-05  -5.9602629e-05   8.2264333e-05   2.1294213e-04   2.5991973e-04   2.4938555e-04  -2.0975092e-04  -1.8534259e-04   7.8226584e-05   1.8921449e-04   3.3375144e-04   3.0959614e-04   0.0000000e+00
  -6.7369878e-04  -3.8665166e-04  -2.3248966e-04  -4.2269480e-04  -3.8880640e-04  -2.7232044e-04  -3.3863979e-04  -2.3738743e-04  -2.4811056e-04  -4.2652436e-04  -3.7660357e-04  -4.6041744e-04   5.2253028e-05   4.3330771e-05  -2.8865451e-04  -3.9536933e-04  -3.7123271e-04  -3.2529418e-04  -3.8757268e-04  -6.1565341e-04  -3.7123520e-04  -3.4720601e-04  -3.8150749e-04  -3.4281746e-04  -2.0492850e-04  -5.3325382e-04  -1.6308415e-04  -2.2848255e-04  -7.8692701e-05  -2.3079790e-05   1.3897093e-04  -4.2384054e-05  -3.1523863e-04  -2.5891456e-04  -1.9846202e-04  -1.0454785e-04  -8.9829728e-05   0.0000000e+00  -1.6368449e-04  -1.9927085e-04  -7.2010787e-05  -1.3526448e-04  -7.6951953e-05  -2.6099141e-05  -1.5458664e-04  -9.2928802e-05  -6.6567125e-05  -6.1288651e-06  -3.4274207e-05  -9.4775802e-06   1.1829074e-04   2.6393839e-04  -6.6904341e-05  -5.6454212e-05  -1.3688335e-05   3.3039202e-06  -6.7945875e-05  -5.7098015e-05  -5.7723094e-05  -1.8173211e-04  -8.5455921e-05  -1.6626329e-04   1.5530859e-04  -1.4163997e-04  -1.6985127e-04  -3.8308851e-05   2.1247681e-04   1.2988532e-04   3.8000792e-04  -2.0996364e-04  -2.4604356e-04  -5.6795051e-05   1.1973779e-04   2.6032451e-04   6.0537101e-04   0.0000000e+00   6.8156714e-04   3.6911402e-04   2.8132307e-04   4.0020351e-04   4.4848022e-04   2.3535523e-04   3.2505937e-05   1.0994561e-04   1.1387436e-04   1.5694310e-04   2.5977874e-04   3.3083075e-04   1.5429180e-04   1.5559356e-05   9.2279969e-05   1.6363406e-04   2.4067126e-04   4.1556814e-04   4.3096338e-04   5.8238738e-04   4.0745348e-04   3.0080658e-04   2.2855534e-04   1.7695684e-04   7.7398598e-05   4.4731358e-04   2.5488703e-04   8.8438414e-05   1.6725406e-05  -7.4788954e-06  -6.4703152e-04   2.8788839e-04   6.3111487e-04   2.1535185e-04   1.2639729e-04   6.9749770e-05  -3.1976324e-05   0.0000000e+00  -4.0142498e-05   5.7283856e-06   1.3605552e-05  -4.2505208e-07  -6.6273893e-06   5.1881758e-05  -1.2295143e-05  -6.3337584e-06   1.4141351e-05   1.5324112e-05   4.4525225e-05   5.5870317e-05  -4.7855164e-04  -2.7562341e-04   4.7266355e-05   5.5602349e-05   4.0838441e-05   2.0776921e-05   6.4629400e-05   7.9668192e-05   4.4542597e-05   1.9720705e-06   4.8347660e-05   1.7908966e-05  -1.0620468e-04   8.4084375e-05   2.9726458e-06   2.2671453e-05  -1.6520563e-04  -2.4973067e-04  -5.1436992e-04   3.3762526e-05   4.6821103e-05   5.7243523e-05  -4.1051952e-05  -1.5965420e-04  -4.1549203e-04   0.0000000e+00  -2.0329678e-04  -5.1404023e-05   5.3923210e-06  -9.7545730e-06  -1.7144304e-04  -2.9034397e-05  -2.0938539e-04  -1.1605684e-04  -5.1897641e-05  -7.7538138e-05  -5.2990019e-05  -1.7636552e-05  -1.0476959e-04  -2.0582500e-05  -5.7294278e-05  -9.0319119e-05  -9.0224432e-05  -5.0216151e-05  -9.5740222e-06  -8.9556615e-05  -7.3060439e-06  -6.6374414e-05  -7.1499485e-05  -9.0421933e-05  -1.3830314e-04  -8.7441885e-05  -4.3023655e-05  -7.2781556e-05  -1.5142478e-04   1.2669079e-05  -1.9219561e-04   4.3649167e-05  -5.9467958e-05  -2.2582468e-05  -1.3079581e-04  -7.3099626e-05  -9.2039398e-06   0.0000000e+00  -1.5284954e-04  -3.4643865e-05   6.1722192e-06  -4.6545685e-05  -8.3991738e-05  -3.1182098e-05  -1.1919293e-05  -2.9065824e-05   4.3890626e-06  -4.9711516e-05  -2.3870114e-05  -3.5311572e-05   1.1933458e-04   9.9275214e-05  -9.3844100e-06   8.9692140e-06  -2.4895937e-06  -2.6922137e-05  -4.0853432e-06  -4.0503393e-05   3.5446580e-05  -1.5433128e-05  -2.5634240e-05   2.5236526e-05   7.7511073e-05  -1.4604400e-05   1.0383747e-04   1.7575798e-05   5.0402238e-05   6.9697549e-05  -3.8388281e-06   1.1924234e-04   7.9191320e-05  -5.8513053e-06   7.5706237e-06   1.8515240e-05  -1.7969677e-04   0.0000000e+00   7.5507270e-04   2.6382655e-04   8.7341370e-05   3.6689636e-04   2.4310263e-04   1.2933358e-04   2.2408230e-04   1.5146069e-04   5.3242888e-05   2.8695599e-04   1.2753356e-04   2.5008851e-04   2.8790250e-04   1.0640254e-04   1.1325354e-04  -6.9886709e-06   5.2984957e-05   1.0155718e-04   1.1855086e-04   1.8231800e-04  -3.9476796e-05   8.5975122e-05   1.7348398e-04   3.8629629e-05   1.3958495e-04   6.9003341e-05  -3.4622152e-04   2.2445078e-05   8.6411974e-05  -7.4169204e-05  -1.0224637e-04  -6.3021594e-04  -4.7255743e-04   1.4756462e-04   2.8294574e-04   1.6890074e-04  -4.2350744e-05   0.0000000e+00   4.1378370e-04   2.6354735e-04   1.5135645e-04   2.4657666e-04   1.8402153e-04   9.9721752e-05   1.7899051e-04   1.2108067e-04   1.7096546e-04   2.2427155e-04   1.3715080e-04   1.4676969e-04   5.8885668e-04   2.0578623e-04   8.4315443e-05   2.0738445e-04   1.2856046e-04   4.9831263e-05   9.3408031e-05   1.6193085e-04   9.2482723e-05   3.4647737e-04   2.0090889e-04   3.6462786e-04   2.2916373e-04   1.7275674e-04   2.3433331e-04   1.0863832e-04   2.2830684e-04   2.2631272e-04   3.1302006e-04   1.3927983e-04   3.3474009e-04   4.3493040e-05   1.3101553e-04   3.7042873e-04   2.8113454e-04   0.0000000e+00   1.3501813e-03   6.7393922e-04   4.4548103e-04   8.8613651e-04   6.8647573e-04   4.1619947e-04   3.6664799e-04   3.8653889e-04   4.5806397e-04   7.3512845e-04   5.8035832e-04   8.3555327e-04   1.0834595e-03   4.5861230e-04   4.2579676e-04   6.2124265e-04   4.5525500e-04   4.9675477e-04   7.1312901e-04   1.1700144e-03   6.6771621e-04   4.4847958e-04   2.7942109e-04   4.4247666e-04   2.5935412e-04   5.0313456e-04   3.5109201e-04   2.3001040e-04   3.5165885e-04   4.2316121e-04   7.4228408e-05   2.8206160e-04   5.8088744e-04   3.4303677e-04   3.7726329e-04   4.6429429e-04   6.6357842e-04   0.0000000e+00   3.9183992e-04  -1.7194039e-05  -9.3573561e-05  -3.1425939e-05   1.0882174e-04   1.2067078e-04  -2.7160254e-04  -1.2020268e-04  -8.2449384e-05   8.3971305e-05   2.9799292e-05   1.6509780e-04  -3.9818834e-04  -2.0084297e-04   2.2391332e-07   1.5546590e-05   9.0718170e-05   1.2461881e-04   1.4005043e-04   1.6354385e-04  -6.2722742e-05  -9.9522251e-05  -2.6251728e-05  -3.5875982e-04  -4.1274816e-04  -9.7705401e-05  -1.4996979e-04  -8.1251424e-05  -1.9076227e-04  -3.6839721e-05  -1.4051631e-04  -6.1261710e-05  -2.9080361e-05  -1.5807822e-05  -9.8208991e-05   6.4635703e-05   2.3390587e-04   0.0000000e+00  -3.5334926e-04  -2.0251511e-04  -1.8926763e-04  -2.7852609e-04  -2.3534674e-04  -1.3267143e-04  -3.4963678e-04  -2.3150195e-04  -2.3380360e-04  -2.8599465e-04  -2.2463020e-04  -1.8479600e-04  -5.5188259e-05  -7.8951441e-05  -2.5072765e-04  -2.7915674e-04  -2.2864840e-04  -1.5006266e-04  -9.4922787e-05  -9.9049900e-05  -7.8938031e-05  -1.4789465e-04  -8.8799931e-05  -1.5445529e-04  -1.3981845e-04  -1.0235319e-04  -8.2879911e-05  -1.4729683e-04  -1.3067530e-04  -7.3000643e-05  -1.4816130e-04  -2.6864871e-05  -1.4268784e-04  -1.4366668e-04  -2.3188557e-04  -1.4794040e-04  -2.5537367e-04   0.0000000e+00  -4.8464303e-04  -1.8192857e-04   1.2201921e-05  -2.3301575e-04  -2.3097851e-04  -1.2872725e-04  -3.0750801e-04  -7.4647310e-05  -3.9919346e-05  -5.9748305e-05  -1.2082368e-05  -1.3492310e-04   2.7791632e-05   9.4432800e-05  -1.7995148e-05  -5.9597382e-05   2.7191974e-05  -1.8409588e-05  -8.5956372e-05  -3.1568168e-04  -1.5695699e-04  -9.3912463e-05   1.3998666e-05  -1.1585909e-04   1.2321751e-04   5.0130681e-05  -7.5412877e-05   7.2257816e-05   2.1055147e-04   2.5530093e-04   2.8031970e-04  -2.2282731e-04  -2.1508878e-04   6.5059836e-05   1.8244093e-04   3.2718259e-04   3.2285123e-04   0.0000000e+00
  -6.8002376e-04  -3.8208858e-04  -2.2820752e-04  -4.2046265e-04  -3.9595540e-04  -2.7421417e-04  -3.3154491e-04  -2.3468381e-04  -2.4415474e-04  -4.2458249e-04  -3.7566621e-04  -4.5967807e-04   4.0066944e-05   4.0426422e-05  -2.8091815e-04  -3.9045147e-04  -3.6922914e-04  -3.2863637e-04  -3.8847337e-04  -6.1668157e-04  -3.6533924e-04  -3.4003254e-04  -3.7882084e-04  -3.3327600e-04  -1.9630462e-04  -5.2529808e-04  -1.5597172e-04  -2.2114053e-04  -7.6793662e-05  -2.3109546e-05   1.3662662e-04  -3.6950869e-05  -3.0618483e-04  -2.5108327e-04  -1.9141486e-04  -1.0713459e-04  -9.7206771e-05   0.0000000e+00  -1.4787222e-04  -1.9331504e-04  -6.5086250e-05  -1.2956547e-04  -6.4689542e-05  -2.2005999e-05  -1.5451816e-04  -8.9310376e-05  -5.8513232e-05   1.6511994e-05  -2.1289129e-05   9.4225547e-06   8.6566079e-05   2.4907019e-04  -5.9742168e-05  -4.3625338e-05  -5.0151925e-07   1.8164484e-05  -6.3049924e-05  -4.1265183e-05  -4.8994358e-05  -1.7120314e-04  -7.1951100e-05  -1.6488823e-04   1.5819404e-04  -1.2096372e-04  -1.8206357e-04  -2.3488570e-05   2.0106292e-04   1.0151090e-04   3.8437205e-04  -2.3247215e-04  -2.4991435e-04  -4.4783113e-05   1.3147130e-04   2.4943894e-04   6.8906968e-04   0.0000000e+00   5.8370044e-04   3.3081414e-04   2.6279433e-04   3.5622241e-04   4.2067159e-04   2.1373766e-04   2.2592300e-05   9.0097989e-05   9.4635116e-05   1.2367845e-04   2.2961441e-04   3.0153605e-04   1.8628570e-04   2.5907122e-05   6.6971263e-05   1.2330133e-04   2.1338920e-04   3.8815882e-04   4.0283543e-04   5.0982716e-04   3.5340281e-04   2.6078448e-04   1.9329179e-04   1.2607660e-04   5.0908699e-05   3.9324766e-04   2.2853034e-04   7.0360831e-05   1.2499399e-05  -8.7197873e-06  -6.0404714e-04   2.6591406e-04   6.0554646e-04   1.9790437e-04   1.1930878e-04   6.7154610e-05  -3.6489047e-05   0.0000000e+00  -3.0567241e-05   9.9853953e-06   1.9202628e-05   4.4566726e-06   4.0226248e-07   5.5232702e-05   7.9992338e-06   3.8833193e-06   1.8616690e-05   2.4946001e-05   5.3584959e-05   6.4579207e-05  -4.9188439e-04  -2.8370212e-04   5.8085468e-05   6.5690090e-05   5.2269949e-05   2.7557338e-05   7.1060303e-05   9.2050689e-05   5.0613450e-05   1.5603723e-05   5.7835227e-05   2.9347632e-05  -9.6471056e-05   9.8857065e-05   7.1791860e-06   3.3810298e-05  -1.6385032e-04  -2.5658846e-04  -5.2758298e-04   3.0303017e-05   5.1336191e-05   6.8039863e-05  -3.0733156e-05  -1.6277633e-04  -4.2592046e-04   0.0000000e+00  -1.9385966e-04  -4.4878773e-05   1.4290161e-05  -1.6588731e-06  -1.6667932e-04  -1.6855352e-05  -1.9961013e-04  -1.0632440e-04  -4.2176513e-05  -6.4386225e-05  -3.9693947e-05   1.8574369e-06  -1.4752598e-04  -5.4339625e-05  -4.5905311e-05  -7.8941409e-05  -7.6933820e-05  -3.5438725e-05   1.2069909e-05  -6.1495122e-05   1.4386716e-05  -5.6862354e-05  -5.8385192e-05  -7.3259714e-05  -1.3781982e-04  -6.3333392e-05  -3.3142705e-05  -6.1684383e-05  -1.7765138e-04  -3.6998218e-06  -2.0850031e-04   5.7866659e-05  -3.9619215e-05  -7.5968785e-06  -1.3256835e-04  -9.4657930e-05  -9.1052604e-06   0.0000000e+00  -1.2170930e-04  -1.4470521e-05   2.1443107e-05  -2.2512653e-05  -6.5199209e-05  -1.6494549e-05   1.3504829e-05  -1.3411994e-05   1.7899167e-05  -2.6483225e-05  -2.4026634e-06  -1.0035892e-05   1.2380900e-04   1.0077544e-04   9.5074357e-06   3.1320444e-05   1.9839818e-05  -9.2824756e-06   1.6379258e-05  -8.4250803e-06   5.5711819e-05   5.0535108e-06  -5.8693264e-06   4.6933470e-05   9.8365535e-05   1.6136024e-05   1.1211877e-04   3.2483625e-05   6.0017828e-05   8.2052674e-05   2.8456073e-06   1.2062854e-04   9.9663524e-05   1.1649092e-05   2.4678965e-05   2.4406097e-05  -1.7135296e-04   0.0000000e+00   7.2396651e-04   2.3628416e-04   6.7950990e-05   3.3300260e-04   2.2890377e-04   1.2234020e-04   2.2654000e-04   1.4534237e-04   4.0940036e-05   2.7449578e-04   1.1897008e-04   2.4440722e-04   2.9838928e-04   9.0206827e-05   9.8005879e-05  -3.3961504e-05   4.5229266e-05   1.0321293e-04   1.2006683e-04   1.8254516e-04  -5.8136394e-05   6.9179247e-05   1.6897064e-04   2.3436562e-05   1.3450636e-04   5.5074110e-05  -3.7502261e-04   1.1839365e-05   7.2092206e-05  -8.6983146e-05  -1.3510837e-04  -6.5966992e-04  -5.1088011e-04   1.3814082e-04   2.7483320e-04   1.5391397e-04  -1.1217571e-04   0.0000000e+00   4.8066363e-04   3.1218590e-04   1.6896145e-04   2.7906865e-04   2.1984104e-04   1.2129373e-04   2.0976795e-04   1.4061760e-04   1.9946327e-04   2.5888732e-04   1.6560513e-04   1.7724676e-04   6.0552579e-04   2.0940210e-04   1.0727601e-04   2.4042442e-04   1.5885660e-04   7.5724131e-05   1.2467705e-04   2.0571290e-04   1.2050011e-04   3.8748709e-04   2.2889511e-04   4.0692255e-04   2.5793908e-04   2.1007743e-04   2.5256483e-04   1.3114441e-04   2.4191467e-04   2.6069202e-04   3.1320816e-04   1.5240517e-04   3.7114195e-04   6.4310114e-05   1.5451248e-04   3.7908415e-04   2.6540724e-04   0.0000000e+00   1.4532154e-03   7.4752610e-04   4.7451941e-04   9.4940253e-04   7.4583398e-04   4.6370216e-04   3.6972636e-04   4.0264667e-04   4.8820157e-04   7.7816679e-04   6.2521040e-04   8.9848768e-04   1.0369800e-03   4.5481112e-04   4.4671829e-04   6.5472666e-04   4.8644752e-04   5.4118834e-04   7.6711650e-04   1.2511393e-03   7.2162940e-04   4.8727068e-04   3.1629986e-04   4.9844455e-04   2.8444994e-04   5.5968406e-04   3.9051348e-04   2.5867439e-04   3.7595261e-04   4.3658541e-04   9.6021094e-05   3.0700296e-04   6.3247969e-04   3.6502242e-04   3.9520335e-04   5.0030685e-04   7.1332659e-04   0.0000000e+00   3.8593896e-04  -1.8294309e-05  -9.4536505e-05  -5.1993500e-05   1.2145628e-04   1.1360196e-04  -2.5931105e-04  -1.1135884e-04  -7.6569686e-05   9.4062214e-05   3.5662259e-05   1.5848724e-04  -3.8881790e-04  -1.9147235e-04   1.0552210e-05   2.1828077e-05   9.8100735e-05   1.2497537e-04   1.3427652e-04   1.4574977e-04  -8.0212631e-05  -8.6591710e-05  -3.4649187e-05  -3.6345897e-04  -4.2007050e-04  -1.1888614e-04  -1.5611991e-04  -8.0182091e-05  -1.9052764e-04  -1.4470371e-05  -1.4108960e-04  -6.6423391e-05  -3.3895327e-05  -2.0635918e-05  -9.1252721e-05   9.8889129e-05   2.6758355e-04   0.0000000e+00  -3.3332939e-04  -1.7397049e-04  -1.7370460e-04  -2.5846846e-04  -2.2661390e-04  -1.2230540e-04  -3.3062085e-04  -2.1943780e-04  -2.2172127e-04  -2.7055209e-04  -2.0787796e-04  -1.6308361e-04  -8.4430568e-05  -9.2916859e-05  -2.4067316e-04  -2.6391192e-04  -2.1614630e-04  -1.4131415e-04  -7.4931469e-05  -6.9444634e-05  -5.5276516e-05  -1.1991186e-04  -6.8692470e-05  -1.3196251e-04  -1.2505044e-04  -6.9311918e-05  -6.1350005e-05  -1.2815222e-04  -1.3653898e-04  -8.4363209e-05  -1.6703836e-04  -1.4678062e-05  -1.1458368e-04  -1.2743162e-04  -2.2784582e-04  -1.4425003e-04  -2.6049671e-04   0.0000000e+00  -5.3668046e-04  -2.1557363e-04  -2.3476302e-06  -2.6371392e-04  -2.5689220e-04  -1.4245792e-04  -3.3415807e-04  -9.0762268e-05  -5.6488529e-05  -7.9486951e-05  -2.7916181e-05  -1.5931461e-04   9.3507575e-06   8.5153042e-05  -3.1381791e-05  -8.0913576e-05   1.3120268e-05  -3.4910119e-05  -1.1108449e-04  -3.5160669e-04  -1.9262732e-04  -1.2355908e-04  -3.1741965e-06  -1.5497701e-04   1.0397774e-04   1.7865336e-05  -9.3843038e-05   5.8737206e-05   2.0456382e-04   2.4643615e-04   3.0563324e-04  -2.3615308e-04  -2.4800026e-04   4.8042012e-05   1.7167796e-04   3.1423583e-04   3.2834577e-04   0.0000000e+00
  -6.7643965e-04  -3.7191889e-04  -2.2045085e-04  -4.1182420e-04  -3.9747757e-04  -2.7202431e-04  -3.1957168e-04  -2.2840744e-04  -2.3677975e-04  -4.1635667e-04  -3.6912246e-04  -4.5195994e-04   2.6999290e-05   3.6268218e-05  -2.6912783e-04  -3.7982062e-04  -3.6183142e-04  -3.2712495e-04  -3.8368563e-04  -6.0878830e-04  -3.5436842e-04  -3.2847640e-04  -3.7076811e-04  -3.1932880e-04  -1.8503841e-04  -5.0990047e-04  -1.4722682e-04  -2.1065769e-04  -7.4392769e-05  -2.3376268e-05   1.3160729e-04  -3.1592597e-05  -2.9355875e-04  -2.3959588e-04  -1.8143999e-04  -1.0874322e-04  -1.0301391e-04   0.0000000e+00  -1.2587486e-04  -1.8273899e-04  -5.6171371e-05  -1.1979537e-04  -4.8461977e-05  -1.6685596e-05  -1.4995183e-04  -8.2141487e-05  -4.8213440e-05   4.1395145e-05  -6.1904928e-06   3.0522760e-05   4.8798121e-05   2.3006533e-04  -5.0132467e-05  -2.9186061e-05   1.4562513e-05   3.4706382e-05  -5.6485714e-05  -2.2775227e-05  -3.8421944e-05  -1.5902874e-04  -5.6719938e-05  -1.6256650e-04   1.5730930e-04  -9.7441827e-05  -1.9321265e-04  -7.3672050e-06   1.8631252e-04   6.9897092e-05   3.8367527e-04  -2.5328957e-04  -2.5035490e-04  -3.0693817e-05   1.4186750e-04   2.3415709e-04   7.6959159e-04   0.0000000e+00   4.8748225e-04   2.9432213e-04   2.4770917e-04   3.1647498e-04   3.9532075e-04   1.9069103e-04   2.5630041e-05   7.6094288e-05   7.9689615e-05   9.4361373e-05   2.0148027e-04   2.7360875e-04   2.0559174e-04   3.6078677e-05   4.8565506e-05   8.9383409e-05   1.9053035e-04   3.5892498e-04   3.7504569e-04   4.3664663e-04   3.0001835e-04   2.2453109e-04   1.5725529e-04   9.1003211e-05   3.2173967e-05   3.4103559e-04   2.0421097e-04   5.7800891e-05   7.7978063e-06  -2.1959847e-05  -5.8245676e-04   2.4717891e-04   5.8070756e-04   1.8062593e-04   1.1448018e-04   5.3237808e-05  -6.7411343e-05   0.0000000e+00  -1.9720592e-05   1.4622465e-05   2.5045188e-05   1.0101782e-05   8.3912766e-06   5.8973786e-05   2.6574340e-05   1.4399364e-05   2.3588200e-05   3.4734344e-05   6.2935033e-05   7.3178979e-05  -4.9884253e-04  -2.8882020e-04   6.7977270e-05   7.5172927e-05   6.3257285e-05   3.5176118e-05   7.7780204e-05   1.0359491e-04   5.7394788e-05   2.8725232e-05   6.6947195e-05   3.9934991e-05  -8.7662897e-05   1.1238564e-04   1.3402855e-05   4.4105439e-05  -1.6203258e-04  -2.5962593e-04  -5.3734399e-04   2.8862712e-05   5.7345396e-05   7.7687146e-05  -2.0889568e-05  -1.6292139e-04  -4.3351615e-04   0.0000000e+00  -1.7831445e-04  -3.5993517e-05   2.4352814e-05   8.6599558e-06  -1.5852738e-04  -2.7792832e-06  -1.9049125e-04  -9.5553602e-05  -3.0940463e-05  -5.0211644e-05  -2.4959045e-05   2.2906598e-05  -1.8589915e-04  -8.5380416e-05  -3.4742448e-05  -6.5659698e-05  -6.2780998e-05  -1.8534743e-05   3.6079956e-05  -3.0465963e-05   4.0033909e-05  -4.5202961e-05  -4.3472340e-05  -5.2160301e-05  -1.3574287e-04  -3.6904825e-05  -1.7748619e-05  -4.9103048e-05  -2.0135536e-04  -1.9747547e-05  -2.2192315e-04   7.7556749e-05  -1.3918582e-05   7.6563225e-06  -1.3417521e-04  -1.1187622e-04  -7.3313790e-06   0.0000000e+00  -8.7503132e-05   6.5832018e-06   3.6826651e-05   2.8577246e-06  -4.4561694e-05  -8.7542715e-07   3.9445385e-05   3.3149837e-06   3.1221028e-05  -2.9799676e-06   1.9587455e-05   1.6194928e-05   1.2732722e-04   1.0151667e-04   2.8748479e-05   5.3574614e-05   4.2239355e-05   9.3047093e-06   3.7885493e-05   2.5566853e-05   7.6382645e-05   2.4874222e-05   1.4455300e-05   6.7491571e-05   1.1839106e-04   4.7463858e-05   1.1996985e-04   4.7423245e-05   6.9784874e-05   9.3253135e-05   9.0385836e-06   1.2201774e-04   1.2041637e-04   2.9418809e-05   4.2023251e-05   2.9759370e-05  -1.6439418e-04   0.0000000e+00   6.8645145e-04   2.0713268e-04   4.8227313e-05   2.9533434e-04   2.1314041e-04   1.1284801e-04   2.3018739e-04   1.3876043e-04   2.8677756e-05   2.5996838e-04   1.0942363e-04   2.3400299e-04   3.0594616e-04   7.4729369e-05   8.3687378e-05  -5.9622184e-05   3.8537906e-05   1.0343281e-04   1.1754114e-04   1.7941533e-04  -7.6581199e-05   5.6793061e-05   1.6269644e-04   1.3947136e-05   1.3128662e-04   4.1360341e-05  -3.9893194e-04   3.0057563e-06   6.0392135e-05  -9.7718733e-05  -1.6152629e-04  -6.8280680e-04  -5.4285571e-04   1.2830378e-04   2.6644286e-04   1.3940070e-04  -1.7956807e-04   0.0000000e+00   5.3983069e-04   3.5561949e-04   1.8230429e-04   3.0557825e-04   2.5213113e-04   1.4015494e-04   2.3751378e-04   1.5850280e-04   2.2453372e-04   2.8971271e-04   1.9076542e-04   2.0373449e-04   6.1827246e-04   2.1204732e-04   1.2801351e-04   2.6903510e-04   1.8628346e-04   9.9717189e-05   1.5244248e-04   2.4519439e-04   1.4349453e-04   4.2407951e-04   2.5360261e-04   4.4364007e-04   2.8449861e-04   2.4209994e-04   2.6601618e-04   1.5092021e-04   2.5391845e-04   2.9237095e-04   3.0970950e-04   1.6023071e-04   3.9989468e-04   8.2766940e-05   1.7549963e-04   3.8656190e-04   2.5049174e-04   0.0000000e+00   1.5418634e-03   8.1047064e-04   4.9750250e-04   1.0014553e-03   7.9787110e-04   5.0602556e-04   3.6806849e-04   4.1388063e-04   5.1229151e-04   8.1366240e-04   6.6427583e-04   9.5229380e-04   9.8321454e-04   4.4729375e-04   4.6282644e-04   6.8013006e-04   5.1317019e-04   5.8029013e-04   8.1107496e-04   1.3182022e-03   7.6678478e-04   5.1816195e-04   3.4798031e-04   5.4258772e-04   3.0486052e-04   6.0873519e-04   4.2330026e-04   2.8308540e-04   3.9757579e-04   4.4500413e-04   1.1863730e-04   3.2559304e-04   6.7271797e-04   3.8136382e-04   4.0766971e-04   5.3121296e-04   7.5120496e-04   0.0000000e+00   3.7210451e-04  -1.9434553e-05  -9.5332138e-05  -7.4290476e-05   1.2981096e-04   1.0372506e-04  -2.4699712e-04  -1.0273534e-04  -7.0054168e-05   1.0026062e-04   3.9220537e-05   1.4534190e-04  -3.8845148e-04  -1.8631460e-04   1.9704349e-05   2.7118150e-05   1.0252647e-04   1.2152203e-04   1.2245198e-04   1.1699417e-04  -9.9660116e-05  -7.5605945e-05  -4.6616144e-05  -3.6745709e-04  -4.2979024e-04  -1.4359762e-04  -1.6078391e-04  -8.0033429e-05  -1.9752736e-04   5.0720215e-07  -1.4877388e-04  -6.9506418e-05  -3.9297697e-05  -2.8459128e-05  -8.9359542e-05   1.2241166e-04   2.9329114e-04   0.0000000e+00  -3.0573552e-04  -1.3996785e-04  -1.5470358e-04  -2.3283378e-04  -2.1342436e-04  -1.0827706e-04  -3.0812906e-04  -2.0383660e-04  -2.0596943e-04  -2.5073086e-04  -1.8712050e-04  -1.3634065e-04  -1.1530584e-04  -1.0582818e-04  -2.2733745e-04  -2.4420055e-04  -2.0000625e-04  -1.2928421e-04  -5.1141388e-05  -3.4576760e-05  -2.7688897e-05  -8.8359701e-05  -4.4862710e-05  -1.0628305e-04  -1.0896707e-04  -3.1209473e-05  -3.6723934e-05  -1.0610055e-04  -1.4108429e-04  -9.5543015e-05  -1.8471433e-04  -2.7204255e-07  -8.1879327e-05  -1.0800538e-04  -2.2085900e-04  -1.3815396e-04  -2.6121667e-04   0.0000000e+00  -5.9006276e-04  -2.5176055e-04  -1.8742447e-05  -2.9575371e-04  -2.8431024e-04  -1.5711494e-04  -3.5932073e-04  -1.0728514e-04  -7.4269420e-05  -1.0136256e-04  -4.5988752e-05  -1.8575512e-04  -6.7279156e-06   7.6153170e-05  -4.6266623e-05  -1.0380652e-04  -3.6559727e-06  -5.4261108e-05  -1.3981193e-04  -3.8960040e-04  -2.3167339e-04  -1.5757753e-04  -2.4339306e-05  -1.9708346e-04   8.2001441e-05  -1.9996198e-05  -1.1442060e-04   4.2213586e-05   1.9559115e-04   2.3403882e-04   3.2504208e-04  -2.4968091e-04  -2.8344814e-04   2.7765904e-05   1.5754438e-04   2.9562553e-04   3.2630406e-04   0.0000000e+00
  -6.6302300e-04  -3.5649162e-04  -2.0948459e-04  -3.9704281e-04  -3.9336271e-04  -2.6582215e-04  -3.0324407e-04  -2.1881173e-04  -2.2628292e-04  -4.0218074e-04  -3.5722734e-04  -4.3750011e-04   1.3566494e-05   3.1046436e-05  -2.5371566e-04  -3.6387187e-04  -3.4931910e-04  -3.2084624e-04  -3.7335281e-04  -5.9221415e-04  -3.3871435e-04  -3.1292702e-04  -3.5762226e-04  -3.0140632e-04  -1.7147953e-04  -4.8758048e-04  -1.3716023e-04  -1.9739525e-04  -7.1579292e-05  -2.3899146e-05   1.2409485e-04  -2.6511270e-05  -2.7782894e-04  -2.2485102e-04  -1.6888881e-04  -1.0931918e-04  -1.0695320e-04   0.0000000e+00  -9.8793932e-05  -1.6842254e-04  -4.5929587e-05  -1.0672270e-04  -2.9192470e-05  -1.0577251e-05  -1.4177956e-04  -7.2042449e-05  -3.6287923e-05   6.7220373e-05   1.0054663e-05   5.2601007e-05   5.8029048e-06   2.0789938e-04  -3.8793977e-05  -1.4145036e-05   3.0668210e-05   5.2137908e-05  -4.8890396e-05  -2.9540550e-06  -2.6824099e-05  -1.4618985e-04  -4.0669505e-05  -1.5985002e-04   1.5239126e-04  -7.2673181e-05  -2.0316785e-04   9.1285678e-06   1.6879164e-04   3.6265840e-05   3.7863248e-04  -2.7209751e-04  -2.4803732e-04  -1.5357713e-05   1.5024291e-04   2.1559816e-04   8.4576936e-04   0.0000000e+00   3.9680965e-04   2.6063239e-04   2.3705528e-04   2.8274103e-04   3.7374843e-04   1.6733995e-04   4.3249674e-05   6.9230193e-05   6.9568074e-05   7.0136247e-05   1.7656692e-04   2.4831148e-04   2.0827338e-04   4.4680009e-05   3.8690023e-05   6.3487184e-05   1.7362854e-04   3.2945150e-04   3.4888682e-04   3.6591879e-04   2.4936444e-04   1.9351802e-04   1.2185597e-04   7.3081102e-05   2.2432988e-05   2.9327999e-04   1.8249803e-04   5.1651433e-05   2.3790514e-06  -4.8408162e-05  -5.8305734e-04   2.3207082e-04   5.5764132e-04   1.6438237e-04   1.1206324e-04   2.7106807e-05  -1.2354128e-04   0.0000000e+00  -8.8133047e-06   1.8983436e-05   3.0628003e-05   1.5827467e-05   1.6644878e-05   6.2769246e-05   4.2137264e-05   2.4417035e-05   2.8581070e-05   4.3873566e-05   7.1890041e-05   8.0924587e-05  -4.9974993e-04  -2.9131782e-04   7.6204989e-05   8.3286879e-05   7.3014543e-05   4.3110926e-05   8.4251440e-05   1.1333526e-04   6.4306735e-05   4.0268730e-05   7.4958494e-05   4.8712699e-05  -8.0826475e-05   1.2367947e-04   2.1116837e-05   5.2762706e-05  -1.6039936e-04  -2.5903894e-04  -5.4407399e-04   2.9468086e-05   6.4268022e-05   8.5484349e-05  -1.2414586e-05  -1.6057680e-04  -4.3888667e-04   0.0000000e+00  -1.5744469e-04  -2.5230495e-05   3.5139856e-05   2.0715116e-05  -1.4741800e-04   1.2777358e-05  -1.8315584e-04  -8.4630564e-05  -1.8670704e-05  -3.5723934e-05  -9.3674097e-06   4.4893152e-05  -2.1933776e-04  -1.1263122e-04  -2.4595362e-05  -5.1141822e-05  -4.8444488e-05  -1.9338434e-09   6.1854187e-05   2.6297638e-06   6.8992236e-05  -3.2141567e-05  -2.7395688e-05  -2.8159930e-05  -1.3246679e-04  -9.1796640e-06   2.8097031e-06  -3.5644442e-05  -2.2175194e-04  -3.5072082e-05  -2.3203968e-04   1.0236012e-04   1.6768965e-05   2.2566710e-05  -1.3596303e-04  -1.2417666e-04  -3.8203919e-06   0.0000000e+00  -5.1490873e-05   2.7662161e-05   5.1699141e-05   2.8631122e-05  -2.2759223e-05   1.5135785e-05   6.4838102e-05   2.0450616e-05   4.3847844e-05   1.9905536e-05   4.1283089e-05   4.2431369e-05   1.3063532e-04   1.0204186e-04   4.7499685e-05   7.4949071e-05   6.3844819e-05   2.8203235e-05   5.9736936e-05   6.0308613e-05   9.6721109e-05   4.3109447e-05   3.4556751e-05   8.5967371e-05   1.3690306e-04   7.8052001e-05   1.2720561e-04   6.1745593e-05   7.9686512e-05   1.0308164e-04   1.4613607e-05   1.2352162e-04   1.4068826e-04   4.6634798e-05   5.8961053e-05   3.4732905e-05  -1.5924097e-04   0.0000000e+00   6.4522718e-04   1.7814548e-04   2.9284224e-05   2.5608278e-04   1.9690024e-04   1.0138402e-04   2.3562653e-04   1.3243714e-04   1.7035366e-05   2.4457435e-04   9.9718875e-05   2.1966698e-04   3.1060182e-04   6.0327717e-05   7.1088530e-05  -8.2761163e-05   3.3387460e-05   1.0257717e-04   1.1113720e-04   1.7330476e-04  -9.3876197e-05   4.9882829e-05   1.5531780e-04   1.1288896e-05   1.3072617e-04   2.8761875e-05  -4.1705385e-04  -3.4037112e-06   5.1875914e-05  -1.0617054e-04  -1.8167722e-04  -6.9912658e-04  -5.6739879e-04   1.1882697e-04   2.5876926e-04   1.2615921e-04  -2.4301089e-04   0.0000000e+00   5.8812674e-04   3.9188884e-04   1.9070329e-04   3.2449725e-04   2.7911926e-04   1.5533053e-04   2.6087638e-04   1.7384870e-04   2.4515321e-04   3.1525586e-04   2.1137303e-04   2.2476056e-04   6.2733452e-04   2.1431175e-04   1.4540133e-04   2.9184733e-04   2.0953305e-04   1.2077453e-04   1.7529018e-04   2.7817492e-04   1.6032343e-04   4.5483185e-04   2.7390146e-04   4.7331134e-04   3.0810964e-04   2.6718085e-04   2.7444462e-04   1.6713395e-04   2.6454675e-04   3.2037776e-04   3.0388828e-04   1.6264194e-04   4.1992346e-04   9.7989334e-05   1.9323697e-04   3.9318479e-04   2.3742295e-04   0.0000000e+00   1.6117211e-03   8.5930000e-04   5.1280075e-04   1.0393447e-03   8.4005746e-04   5.4098383e-04   3.6013176e-04   4.1902706e-04   5.2873238e-04   8.3929950e-04   6.9538777e-04   9.9407409e-04   9.2400949e-04   4.3539455e-04   4.7273205e-04   6.9536230e-04   5.3377684e-04   6.1240245e-04   8.4279246e-04   1.3675480e-03   8.0083766e-04   5.3871024e-04   3.7188620e-04   5.7164842e-04   3.1838152e-04   6.4695935e-04   4.4805353e-04   3.0161610e-04   4.1434108e-04   4.4737310e-04   1.3962291e-04   3.3760455e-04   7.0000805e-04   3.9092595e-04   4.1323492e-04   5.5432711e-04   7.7438011e-04   0.0000000e+00   3.4863707e-04  -2.1927966e-05  -9.6899467e-05  -9.8992294e-05   1.3200492e-04   9.0222515e-05  -2.3627330e-04  -9.5482773e-05  -6.4135140e-05   1.0100391e-04   3.9036033e-05   1.2448561e-04  -3.9886408e-04  -1.8665218e-04   2.6496398e-05   3.0095370e-05   1.0275307e-04   1.1316315e-04   1.0332820e-04   7.5944873e-05  -1.2205088e-04  -6.8026551e-05  -6.2963110e-05  -3.7173977e-04  -4.4263520e-04  -1.7257271e-04  -1.6491248e-04  -8.1518793e-05  -2.1259670e-04   6.2496062e-06  -1.6427895e-04  -7.1556404e-05  -4.6971431e-05  -3.9952460e-05  -9.3668639e-05   1.3281592e-04   3.0870604e-04   0.0000000e+00  -2.7012307e-04  -1.0064437e-04  -1.3260270e-04  -2.0170591e-04  -1.9550658e-04  -9.0584505e-05  -2.8285218e-04  -1.8506181e-04  -1.8669795e-04  -2.2672404e-04  -1.6266905e-04  -1.0483820e-04  -1.4686539e-04  -1.1764001e-04  -2.1097390e-04  -2.2005784e-04  -1.8039361e-04  -1.1411999e-04  -2.3832766e-05   5.4072163e-06   3.5873016e-06  -5.3626162e-05  -1.7389373e-05  -7.7520604e-05  -9.2125916e-05   1.1545559e-05  -9.7390445e-06  -8.1641992e-05  -1.4425598e-04  -1.0625426e-04  -2.0103617e-04   1.6058036e-05  -4.5184821e-05  -8.5775244e-05  -2.1105012e-04  -1.2990515e-04  -2.5730911e-04   0.0000000e+00  -6.4419778e-04  -2.8966061e-04  -3.6674041e-05  -3.2871108e-04  -3.1301238e-04  -1.7260000e-04  -3.8245030e-04  -1.2373810e-04  -9.2972338e-05  -1.2491717e-04  -6.5932452e-05  -2.1375458e-04  -1.9478769e-05   6.8116605e-05  -6.2136602e-05  -1.2756850e-04  -2.2620287e-05  -7.6030182e-05  -1.7155535e-04  -4.2915962e-04  -2.7320331e-04  -1.9501211e-04  -4.8935528e-05  -2.4067659e-04   5.8515552e-05  -6.2353960e-05  -1.3658182e-04   2.3316924e-05   1.8437102e-04   2.1895362e-04   3.3868184e-04  -2.6333368e-04  -3.2068488e-04   4.9482299e-06   1.4077833e-04   2.7225644e-04   3.1734783e-04   0.0000000e+00
  -6.4014340e-04  -3.3631914e-04  -1.9567857e-04  -3.7657688e-04  -3.8376481e-04  -2.5579904e-04  -2.8322776e-04  -2.0625854e-04  -2.1304976e-04  -3.8257492e-04  -3.4040147e-04  -4.1674590e-04   3.0871773e-07   2.5012329e-05  -2.3522513e-04  -3.4316188e-04  -3.3212689e-04  -3.1002771e-04  -3.5778000e-04  -5.6745513e-04  -3.1889215e-04  -2.9387676e-04  -3.3980251e-04  -2.8004397e-04  -1.5602975e-04  -4.5905962e-04  -1.2608866e-04  -1.8179421e-04  -6.8425793e-05  -2.4660230e-05   1.1439775e-04  -2.1858318e-05  -2.5950862e-04  -2.0734633e-04  -1.5419419e-04  -1.0881704e-04  -1.0879678e-04   0.0000000e+00  -6.8226492e-05  -1.5160772e-04  -3.5191147e-05  -9.1462352e-05  -8.1245332e-06  -4.2423189e-06  -1.3130354e-04  -5.9934202e-05  -2.3508467e-05   9.2505882e-05   2.6297284e-05   7.4234160e-05  -4.1299571e-05   1.8372299e-04  -2.6646323e-05   3.5056432e-07   4.6809879e-05   6.9556879e-05  -4.1043135e-05   1.6577353e-05  -1.5176251e-05  -1.3379029e-04  -2.4846345e-05  -1.5741175e-04   1.4330363e-04  -4.8500833e-05  -2.1182825e-04   2.4950019e-05   1.4913363e-04   2.0160757e-06   3.7028085e-04  -2.8865392e-04  -2.4382399e-04   2.6254774e-07   1.5592971e-04   1.9510822e-04   9.1684901e-04   0.0000000e+00   3.1486755e-04   2.3021742e-04   2.3135632e-04   2.5620085e-04   3.5686037e-04   1.4471055e-04   7.6096258e-05   7.0241799e-05   6.4348273e-05   5.1670529e-05   1.5571363e-04   2.2653288e-04   1.9130523e-04   5.0312095e-05   3.8361165e-05   4.6537594e-05   1.6369629e-04   3.0116258e-04   3.2533236e-04   3.0023994e-04   2.0302058e-04   1.6859757e-04   8.8241954e-05   7.2255018e-05   2.2138544e-05   2.5195940e-04   1.6356407e-04   5.2205703e-05  -4.0717108e-06  -8.8388389e-05  -6.0494028e-04   2.2052510e-04   5.3687685e-04   1.4977966e-04   1.1186677e-04  -1.1389032e-05  -2.0186988e-04   0.0000000e+00   9.1576736e-07   2.2407940e-05   3.5441685e-05   2.0920149e-05   2.4422291e-05   6.6243343e-05   5.3573558e-05   3.3144217e-05   3.3089690e-05   5.1552823e-05   7.9746349e-05   8.7074877e-05  -4.9520388e-04  -2.9164913e-04   8.2095802e-05   8.9302159e-05   8.0786719e-05   5.0779782e-05   8.9896854e-05   1.2035053e-04   7.0711808e-05   4.9228300e-05   8.1166756e-05   5.4796487e-05  -7.6888075e-05   1.3182862e-04   2.9652990e-05   5.9062878e-05  -1.5956365e-04  -2.5520918e-04  -5.4824723e-04   3.1974099e-05   7.1388311e-05   9.0807988e-05  -6.1384168e-06  -1.5638073e-04  -4.4266944e-04   0.0000000e+00  -1.3228708e-04  -1.3121384e-05   4.6188383e-05   3.3924410e-05  -1.3388092e-04   2.9347899e-05  -1.7849602e-04  -7.4400035e-05  -5.8622646e-06  -2.1582242e-05   6.5015875e-06   6.7205015e-05  -2.4760258e-04  -1.3531655e-04  -1.6166115e-05  -3.6093541e-05  -3.4572857e-05   1.9591093e-05   8.8730267e-05   3.6866932e-05   1.0042597e-04  -1.8476354e-05  -1.0821550e-05  -2.4280371e-06  -1.2840672e-04   1.8796853e-05   2.7848762e-05  -2.1933517e-05  -2.3824781e-04  -4.9305387e-05  -2.3858343e-04   1.3152995e-04   5.1264740e-05   3.6579220e-05  -1.3819350e-04  -1.3129676e-04   1.4336645e-06   0.0000000e+00  -1.5067684e-05   4.7862872e-05   6.5436010e-05   5.3813130e-05  -5.4339599e-07   3.0961613e-05   8.8616361e-05   3.7284604e-05   5.5293743e-05   4.1290529e-05   6.1856844e-05   6.7687473e-05   1.3459938e-04   1.0294676e-04   6.4915151e-05   9.4680592e-05   8.3809435e-05   4.6737105e-05   8.1183224e-05   9.4548097e-05   1.1595362e-04   5.8892287e-05   5.3634933e-05   1.0149718e-04   1.5328168e-04   1.0655157e-04   1.3362299e-04   7.4795522e-05   8.9696744e-05   1.1145302e-04   1.9527668e-05   1.2519371e-04   1.5967098e-04   6.2467448e-05   7.4856918e-05   3.9521597e-05  -1.5614353e-04   0.0000000e+00   6.0312322e-04   1.5103704e-04   1.2206438e-05   2.1748989e-04   1.8126990e-04   8.8598696e-05   2.4327055e-04   1.2705780e-04   6.5432700e-06   2.2955503e-04   9.0716511e-05   2.0244017e-04   3.1245334e-04   4.7233500e-05   6.0850097e-05  -1.0227827e-04   3.0154893e-05   1.0110268e-04   1.0128399e-04   1.6476528e-04  -1.0911690e-04   4.9176599e-05   1.4753175e-04   1.6223208e-05   1.3344335e-04   1.8123814e-05  -4.2870661e-04  -6.8732934e-06   4.6886026e-05  -1.1228504e-04  -1.9612556e-04  -7.0832920e-04  -5.8375268e-04   1.1044595e-04   2.5271644e-04   1.1488015e-04  -3.0100580e-04   0.0000000e+00   6.2279877e-04   4.1933137e-04   1.9370488e-04   3.3452243e-04   2.9921918e-04   1.6598674e-04   2.7865203e-04   1.8583507e-04   2.6048711e-04   3.3420654e-04   2.2634311e-04   2.3905555e-04   6.3294878e-04   2.1672505e-04   1.5844078e-04   3.0771445e-04   2.2745068e-04   1.3798120e-04   1.9200665e-04   3.0266993e-04   1.7014226e-04   4.7851873e-04   2.8880503e-04   4.9472361e-04   3.2811212e-04   2.8397068e-04   2.7782870e-04   1.7911719e-04   2.7404584e-04   3.4391546e-04   2.9720866e-04   1.5981947e-04   4.3057510e-04   1.0925499e-04   2.0712723e-04   3.9917156e-04   2.2690642e-04   0.0000000e+00   1.6585750e-03   8.9088796e-04   5.1894411e-04   1.0603768e-03   8.6992049e-04   5.6646499e-04   3.4443851e-04   4.1696424e-04   5.3604192e-04   8.5283854e-04   7.1641011e-04   1.0210815e-03   8.6099568e-04   4.1843603e-04   4.7512022e-04   6.9847478e-04   5.4660598e-04   6.3591360e-04   8.6029765e-04   1.3958393e-03   8.2159026e-04   5.4672968e-04   3.8556488e-04   5.8293372e-04   3.2300888e-04   6.7123951e-04   4.6356834e-04   3.1279267e-04   4.2415198e-04   4.4276302e-04   1.5646731e-04   3.4292018e-04   7.1306674e-04   3.9276988e-04   4.1065472e-04   5.6706911e-04   7.8055425e-04   0.0000000e+00   3.1421594e-04  -2.7051724e-05  -1.0010990e-04  -1.2667438e-04   1.2640761e-04   7.2380281e-05  -2.2869997e-04  -9.0673044e-05  -6.0033661e-05   9.5012348e-05   3.3843226e-05   9.5071811e-05  -4.2093532e-04  -1.9333410e-04   2.9848686e-05   2.9576034e-05   9.7719780e-05   9.9005486e-05   7.5928811e-05   2.1837010e-05  -1.4825865e-04  -6.5051470e-05  -8.4255415e-05  -3.7718223e-04  -4.5904851e-04  -2.0634168e-04  -1.6949165e-04  -8.5235287e-05  -2.3599199e-04   1.5148350e-06  -1.8769863e-04  -7.3786136e-05  -5.8598571e-05  -5.5589201e-05  -1.0491059e-04   1.2858886e-04   3.1226602e-04   0.0000000e+00  -2.2623329e-04  -5.6266883e-05  -1.0780968e-04  -1.6529895e-04  -1.7271145e-04  -6.9324255e-05  -2.5545728e-04  -1.6354729e-04  -1.6414139e-04  -1.9883816e-04  -1.3492109e-04  -6.8976132e-05  -1.7822321e-04  -1.2842090e-04  -1.9187306e-04  -1.9160523e-04  -1.5752473e-04  -9.6056531e-05   6.6384471e-06   5.0246300e-05   3.8226766e-05  -1.6116840e-05   1.3548248e-05  -4.5793064e-05  -7.5041694e-05   5.8425795e-05   1.8804208e-05  -5.5310694e-05  -1.4604188e-04  -1.1626461e-04  -2.1604840e-04   3.3964296e-05  -5.2048597e-06  -6.1184306e-05  -1.9860424e-04  -1.1986002e-04  -2.4895308e-04   0.0000000e+00  -6.9851433e-04  -3.2845342e-04  -5.5842606e-05  -3.6217437e-04  -3.4277292e-04  -1.8880867e-04  -4.0317809e-04  -1.3970921e-04  -1.1235480e-04  -1.4970262e-04  -8.7353261e-05  -2.4278622e-04  -2.8190614e-05   6.1623006e-05  -7.8474163e-05  -1.5151842e-04  -4.3194212e-05  -9.9690075e-05  -2.0559905e-04  -4.6976028e-04  -3.1624363e-04  -2.3482810e-04  -7.6263872e-05  -2.8429352e-04   3.4754195e-05  -1.0795629e-04  -1.5971113e-04   2.7431790e-06   1.7171985e-04   2.0209867e-04   3.4709822e-04  -2.7702052e-04  -3.5889341e-04  -1.9628458e-05   1.2218652e-04   2.4516232e-04   3.0243594e-04   0.0000000e+00
  -6.0846089e-04  -3.1206038e-04  -1.7949575e-04  -3.5106803e-04  -3.6899663e-04  -2.4226315e-04  -2.6029692e-04  -1.9120250e-04  -1.9754069e-04  -3.5822384e-04  -3.1921521e-04  -3.9034585e-04  -1.2231087e-05   1.8463193e-05  -2.1428907e-04  -3.1839011e-04  -3.1082696e-04  -2.9503085e-04  -3.3742679e-04  -5.3524785e-04  -2.9552165e-04  -2.7190639e-04  -3.1786168e-04  -2.5586893e-04  -1.3913034e-04  -4.2523905e-04  -1.1432485e-04  -1.6436060e-04  -6.4984402e-05  -2.5605213e-05   1.0292906e-04  -1.7730155e-05  -2.3913996e-04  -1.8766069e-04  -1.3785524e-04  -1.0720498e-04  -1.0840448e-04   0.0000000e+00  -3.6226986e-05  -1.3386002e-04  -2.4915080e-05  -7.5442252e-05   1.3230678e-05   1.6573254e-06  -1.2017996e-04  -4.7009902e-05  -1.0755197e-05   1.1566365e-04   4.1266970e-05   9.3859843e-05  -9.1151274e-05   1.5879712e-04  -1.4769018e-05   1.3073143e-05   6.1850412e-05   8.5994651e-05  -3.3831856e-05   3.3969805e-05  -4.5621226e-06  -1.2300907e-04  -1.0397268e-05  -1.5602025e-04   1.3003362e-04  -2.6920548e-05  -2.1911727e-04   3.8978358e-05   1.2800165e-04  -3.1339538e-05   3.5993748e-04  -3.0278815e-04  -2.3870593e-04   1.5121523e-05   1.5831103e-04   1.7416674e-04   9.8252081e-04   0.0000000e+00   2.4402382e-04   2.0304663e-04   2.3063700e-04   2.3740197e-04   3.4509541e-04   1.2366379e-04   1.2377386e-04   7.9262851e-05   6.3661874e-05   3.9131078e-05   1.3935193e-04   2.0874120e-04   1.5289248e-04   5.1695851e-05   4.7919125e-05   3.8730302e-05   1.6115155e-04   2.7523171e-04   3.0496326e-04   2.4157954e-04   1.6201711e-04   1.4996623e-04   5.7234522e-05   8.7092239e-05   3.0923084e-05   2.1831890e-04   1.4717718e-04   5.9126643e-05  -1.1913199e-05  -1.4126685e-04  -6.4562301e-04   2.1203181e-04   5.1841943e-04   1.3712836e-04   1.1337673e-04  -6.1609343e-05  -2.9785332e-04   0.0000000e+00   8.2956968e-06   2.4277770e-05   3.9009778e-05   2.4689716e-05   3.0991974e-05   6.9009157e-05   6.0020690e-05   3.9850911e-05   3.6609639e-05   5.7021102e-05   8.5829561e-05   9.0949893e-05  -4.8602635e-04  -2.9034154e-04   8.5085374e-05   9.2575816e-05   8.5898198e-05   5.7584360e-05   9.4143010e-05   1.2382929e-04   7.5962066e-05   5.4730403e-05   8.4942388e-05   5.7436794e-05  -7.6585677e-05   1.3606484e-04   3.8255837e-05   6.2418084e-05  -1.6005397e-04  -2.4867722e-04  -5.5035315e-04   3.6081855e-05   7.7909407e-05   9.3153879e-05  -2.7717702e-06  -1.5106750e-04  -4.4548292e-04   0.0000000e+00  -1.0405528e-04  -2.0219897e-07   5.7051303e-05   4.7662836e-05  -1.1850293e-04   4.6448032e-05  -1.7710409e-04  -6.5599647e-05   7.0121350e-06  -8.3436416e-06   2.2114798e-05   8.9278105e-05  -2.7072963e-04  -1.5298877e-04  -1.0009329e-05  -2.1200141e-05  -2.1739950e-05   3.9643177e-05   1.1601968e-04   7.1351854e-05   1.3335706e-04  -4.9977140e-06   5.5898210e-06   2.3809357e-05  -1.2396003e-04   4.6026065e-05   5.6388017e-05  -8.5698093e-06  -2.5045988e-04  -6.2115274e-05  -2.4145581e-04   1.6396565e-04   8.8146685e-05   4.9229158e-05  -1.4101993e-04  -1.3326945e-04   8.3861010e-06   0.0000000e+00   2.0297773e-05   6.6277166e-05   7.7443900e-05   7.7398385e-05   2.1293116e-05   4.6013663e-05   1.0977086e-04   5.3104461e-05   6.5115245e-05   6.0346545e-05   8.0507462e-05   9.0986740e-05   1.4013403e-04   1.0483177e-04   8.0191455e-05   1.1206344e-04   1.0134501e-04   6.4221657e-05   1.0145584e-04   1.2700043e-04   1.3330603e-04   7.1457761e-05   7.0911433e-05   1.1334485e-04   1.6700885e-04   1.3166756e-04   1.3901046e-04   8.5950028e-05   9.9770967e-05   1.1841176e-04   2.3810637e-05   1.2702773e-04   1.7655008e-04   7.6127713e-05   8.9118669e-05   4.4330024e-05  -1.5517500e-04   0.0000000e+00   5.6291486e-04   1.2735959e-04  -2.0122573e-06   1.8170611e-04   1.6725940e-04   7.5228607e-05   2.5329803e-04   1.2324025e-04  -2.3160737e-06   2.1610358e-04   8.3237460e-05   1.8353227e-04   3.1162749e-04   3.5551488e-05   5.3439121e-05  -1.1726364e-04   2.9102106e-05   9.9530898e-05   8.8657755e-05   1.5449762e-04  -1.2147759e-04   5.5025436e-05   1.4001773e-04   2.9098681e-05   1.3981580e-04   1.0166106e-05  -4.3345363e-04  -7.0476131e-06   4.5538762e-05  -1.1614313e-04  -2.0574452e-04  -7.1031854e-04  -5.9151170e-04   1.0381715e-04   2.4904333e-04   1.0611018e-04  -3.5214162e-04   0.0000000e+00   6.4167921e-04   4.3667250e-04   1.9110847e-04   3.3473624e-04   3.1112559e-04   1.7147239e-04   2.8983937e-04   1.9375691e-04   2.6992029e-04   3.4550633e-04   2.3481498e-04   2.4560732e-04   6.3533594e-04   2.1971434e-04   1.6631556e-04   3.1576533e-04   2.3909422e-04   1.5058571e-04   2.0164731e-04   3.1702499e-04   1.7244943e-04   4.9416934e-04   2.9751430e-04   5.0698744e-04   3.4394519e-04   2.9147994e-04   2.7636194e-04   1.8639246e-04   2.8264361e-04   3.6241431e-04   2.9110304e-04   1.5223334e-04   4.3164400e-04   1.1602907e-04   2.1674777e-04   4.0462356e-04   2.1926199e-04   0.0000000e+00   1.6787596e-03   9.0272391e-04   5.1475304e-04   1.0623346e-03   8.8524715e-04   5.8058113e-04   3.1974833e-04   4.0675735e-04   5.3300872e-04   8.5232894e-04   7.2540826e-04   1.0309399e-03   7.9558569e-04   3.9584130e-04   4.6887855e-04   6.8784117e-04   5.5008971e-04   6.4934569e-04   8.6201056e-04   1.4003224e-03   8.2716143e-04   5.4049302e-04   3.8687595e-04   5.7454943e-04   3.1713328e-04   6.7892391e-04   4.6891742e-04   3.1544578e-04   4.2519821e-04   4.3045615e-04   1.6683741e-04   3.4152772e-04   7.1100150e-04   3.8623747e-04   3.9901659e-04   5.6720957e-04   7.6818454e-04   0.0000000e+00   2.6809403e-04  -3.5899958e-05  -1.0570582e-04  -1.5770387e-04   1.1178774e-04   4.9670606e-05  -2.2569655e-04  -8.9249831e-05  -5.8859358e-05   8.1419976e-05   2.2664073e-05   5.6703663e-05  -4.5457416e-04  -2.0669494e-04   2.8871991e-05   2.4619702e-05   8.6665753e-05   7.8444153e-05   3.9659618e-05  -4.5411232e-05  -1.7893456e-04  -6.7521774e-05  -1.1074315e-04  -3.8447120e-04  -4.7912771e-04  -2.4513101e-04  -1.7545399e-04  -9.1622938e-05  -2.6738154e-04  -1.4238093e-05  -2.1849740e-04  -7.7458690e-05  -7.5659499e-05  -7.5590429e-05  -1.2333020e-04   1.0921761e-04   3.0337177e-04   0.0000000e+00  -1.7407782e-04  -7.2559166e-06  -8.0798861e-05  -1.2398938e-04  -1.4505671e-04  -4.4704055e-05  -2.2657933e-04  -1.3978201e-04  -1.3863531e-04  -1.6750083e-04  -1.0435865e-04  -2.9293462e-05  -2.0862495e-04  -1.3833916e-04  -1.7036454e-04  -1.5908472e-04  -1.3168143e-04  -7.5414053e-05   3.9841968e-05   9.9538195e-05   7.5800453e-05   2.3730005e-05   4.7651859e-05  -1.1250506e-05  -5.8164148e-05   1.0877244e-04   4.8080481e-05  -2.7665788e-05  -1.4647214e-04  -1.2540884e-04  -2.3000439e-04   5.3058070e-05   3.7268074e-05  -3.4722186e-05  -1.8377147e-04  -1.0845407e-04  -2.3675219e-04   0.0000000e+00  -7.5249620e-04  -3.6739184e-04  -7.5978157e-05  -3.9576706e-04  -3.7337160e-04  -2.0563052e-04  -4.2133248e-04  -1.5487943e-04  -1.3223290e-04  -1.7529775e-04  -1.0985659e-04  -2.7233149e-04  -3.2449443e-05   5.7114851e-05  -9.4807906e-05  -1.7506360e-04  -6.4785254e-05  -1.2466532e-04  -2.4114967e-04  -5.1088625e-04  -3.5980497e-04  -2.7597735e-04  -1.0553431e-04  -3.2662432e-04   1.1867492e-05  -1.5547455e-04  -1.8318919e-04  -1.8791204e-05   1.5848904e-04   1.8441379e-04   3.5117186e-04  -2.9063432e-04  -3.9724552e-04  -4.5169572e-05   1.0259982e-04   2.1543627e-04   2.8277737e-04   0.0000000e+00
